time,15ckpitae_ecf_0001m.unqcd,15ckpitae_ecf_0024m.unqcd
2015-07-11 00:00:00,0.158,1.484
2015-07-11 01:00:00,0.166,1.221
2015-07-11 02:00:00,0.175,0.668
2015-07-11 03:00:00,0.182,1.036
2015-07-11 04:00:00,0.193,1.178
2015-07-11 05:00:00,0.22,1.089
2015-07-11 06:00:00,0.231,1.09
2015-07-11 07:00:00,0.235,1.238
2015-07-11 08:00:00,0.248,1.22
2015-07-11 09:00:00,0.237,1.23
2015-07-11 10:00:00,0.238,1.195
2015-07-11 11:00:00,0.269,1.189
2015-07-11 12:00:00,0.244,1.009
2015-07-11 13:00:00,0.235,1.156
2015-07-11 14:00:00,0.238,1.51
2015-07-11 15:00:00,0.211,1.562
2015-07-11 16:00:00,0.202,2.31
2015-07-11 17:00:00,0.197,1.18
2015-07-11 18:00:00,0.169,8.894
2015-07-11 19:00:00,0.147,2.989
2015-07-11 20:00:00,0.153,0.769
2015-07-11 21:00:00,0.189,1.067
2015-07-11 22:00:00,0.155,0.665
2015-07-11 23:00:00,0.178,3.045
2015-07-12 00:00:00,0.169,1.42
2015-07-12 01:00:00,0.169,1.062
2015-07-12 02:00:00,0.16,0.835
2015-07-12 03:00:00,0.215,2.168
2015-07-12 04:00:00,0.2,2.006
2015-07-12 05:00:00,0.173,1.618
2015-07-12 06:00:00,0.207,1.489
2015-07-12 07:00:00,0.24,1.218
2015-07-12 08:00:00,0.242,1.197
2015-07-12 09:00:00,0.242,1.199
2015-07-12 10:00:00,0.26,1.283
2015-07-12 11:00:00,0.244,1.127
2015-07-12 12:00:00,0.26,1.05
2015-07-12 13:00:00,0.251,1.245
2015-07-12 14:00:00,0.226,0.691
2015-07-12 15:00:00,0.227,0.614
2015-07-12 16:00:00,0.2,0.732
2015-07-12 17:00:00,0.218,0.787
2015-07-12 18:00:00,0.189,0.791
2015-07-12 19:00:00,0.177,1.248
2015-07-12 20:00:00,0.184,0.812
2015-07-12 21:00:00,0.175,0.594
2015-07-12 22:00:00,0.184,0.613
2015-07-12 23:00:00,0.198,0.616
2015-07-13 00:00:00,0.186,0.684
2015-07-13 01:00:00,0.191,0.852
2015-07-13 02:00:00,0.178,0.796
2015-07-13 03:00:00,0.204,0.479
2015-07-13 04:00:00,0.2,0.511
2015-07-13 05:00:00,0.229,0.625
2015-07-13 06:00:00,0.257,0.657
2015-07-13 07:00:00,0.251,0.831
2015-07-13 08:00:00,0.262,0.537
2015-07-13 09:00:00,0.257,0.8
2015-07-13 10:00:00,0.233,1.631
2015-07-13 11:00:00,0.257,0.71
2015-07-13 12:00:00,0.262,1.427
2015-07-13 13:00:00,0.253,0.905
2015-07-13 14:00:00,0.258,0.682
2015-07-13 15:00:00,0.257,0.472
2015-07-13 16:00:00,0.251,0.57
2015-07-13 17:00:00,0.238,0.594
2015-07-13 18:00:00,0.218,0.657
2015-07-13 19:00:00,0.206,0.477
2015-07-13 20:00:00,0.186,0.497
2015-07-13 21:00:00,0.187,0.392
2015-07-13 22:00:00,0.187,0.4
2015-07-13 23:00:00,0.177,0.497
2015-07-14 00:00:00,0.198,0.631
2015-07-14 01:00:00,0.184,0.445
2015-07-14 02:00:00,0.215,0.517
2015-07-14 03:00:00,0.224,0.726
2015-07-14 04:00:00,0.226,0.956
2015-07-14 05:00:00,0.231,0.793
2015-07-14 06:00:00,0.268,1.187
2015-07-14 07:00:00,0.269,1.081
2015-07-14 08:00:00,0.277,1.15
2015-07-14 09:00:00,0.288,1.34
2015-07-14 10:00:00,0.28,1.273
2015-07-14 11:00:00,0.282,0.983
2015-07-14 12:00:00,0.266,0.882
2015-07-14 13:00:00,0.277,0.962
2015-07-14 14:00:00,0.269,1.031
2015-07-14 15:00:00,0.262,1.433
2015-07-14 16:00:00,0.22,1.059
2015-07-14 17:00:00,0.218,0.635
2015-07-14 18:00:00,0.215,1.069
2015-07-14 19:00:00,0.197,0.945
2015-07-14 20:00:00,0.187,2.028
2015-07-14 21:00:00,0.2,2.463
2015-07-14 22:00:00,0.169,2.676
2015-07-14 23:00:00,0.162,4.516
2015-07-15 00:00:00,0.191,3.843
2015-07-15 01:00:00,0.195,3.237
2015-07-15 02:00:00,0.198,1.051
2015-07-15 03:00:00,0.217,1.94
2015-07-15 04:00:00,0.195,2.653
2015-07-15 05:00:00,0.217,4.051
2015-07-15 06:00:00,0.237,3.263
2015-07-15 07:00:00,0.269,2.903
2015-07-15 08:00:00,0.273,3.508
2015-07-15 09:00:00,0.238,1.43
2015-07-15 10:00:00,0.24,1.313
2015-07-15 11:00:00,0.255,2.343
2015-07-15 12:00:00,0.258,2.286
2015-07-15 13:00:00,0.251,1.828
2015-07-15 14:00:00,0.26,2.158
2015-07-15 15:00:00,0.251,2.172
2015-07-15 16:00:00,0.264,2.144
2015-07-15 17:00:00,0.24,4.213
2015-07-15 18:00:00,0.218,3.523
2015-07-15 19:00:00,0.215,3.062
2015-07-15 20:00:00,0.202,2.629
2015-07-15 21:00:00,0.22,1.218
2015-07-15 22:00:00,0.206,1.233
2015-07-15 23:00:00,0.211,1.294
2015-07-16 00:00:00,0.191,1.515
2015-07-16 01:00:00,0.22,1.995
2015-07-16 02:00:00,0.217,2.454
2015-07-16 03:00:00,0.209,4.835
2015-07-16 04:00:00,0.217,1.898
2015-07-16 05:00:00,0.238,1.284
2015-07-16 06:00:00,0.248,1.583
2015-07-16 07:00:00,0.255,1.914
2015-07-16 08:00:00,0.266,1.031
2015-07-16 09:00:00,0.238,0.866
2015-07-16 10:00:00,0.255,1.545
2015-07-16 11:00:00,0.258,16.867
2015-07-16 12:00:00,0.258,15.996
2015-07-16 13:00:00,0.248,21.102
2015-07-16 14:00:00,0.244,1.164
2015-07-16 15:00:00,0.246,1.054
2015-07-16 16:00:00,0.248,3.359
2015-07-16 17:00:00,0.209,3.107
2015-07-16 18:00:00,0.202,1.728
2015-07-16 19:00:00,0.202,2.391
2015-07-16 20:00:00,0.197,0.887
2015-07-16 21:00:00,0.184,0.932
2015-07-16 22:00:00,0.204,0.76
2015-07-16 23:00:00,0.197,1.448
2015-07-17 00:00:00,0.204,1.473
2015-07-17 01:00:00,0.209,1.07
2015-07-17 02:00:00,0.207,1.156
2015-07-17 03:00:00,0.207,4.036
2015-07-17 04:00:00,0.235,1.611
2015-07-17 05:00:00,0.253,1.221
2015-07-17 06:00:00,0.275,1.975
2015-07-17 07:00:00,0.257,1.591
2015-07-17 08:00:00,0.288,1.254
2015-07-17 09:00:00,0.242,1.188
2015-07-17 10:00:00,0.246,0.882
2015-07-17 11:00:00,0.28,22.437
2015-07-17 12:00:00,0.248,6.434
2015-07-17 13:00:00,0.249,1.7
2015-07-17 14:00:00,0.251,1.778
2015-07-17 15:00:00,0.255,0.617
2015-07-17 16:00:00,0.224,2.833
2015-07-17 17:00:00,0.213,1.94
2015-07-17 18:00:00,0.215,0.861
2015-07-17 19:00:00,0.217,0.642
2015-07-17 20:00:00,0.204,0.68
2015-07-17 21:00:00,0.207,2.13
2015-07-17 22:00:00,0.198,0.591
2015-07-17 23:00:00,0.204,0.508
2015-07-18 00:00:00,0.211,1.265
2015-07-18 01:00:00,0.187,20.293
2015-07-18 02:00:00,0.207,37.528
2015-07-18 03:00:00,0.195,14.463
2015-07-18 04:00:00,0.222,16.185
2015-07-18 05:00:00,0.233,1.166
2015-07-18 06:00:00,0.233,0.584
2015-07-18 07:00:00,0.246,0.635
2015-07-18 08:00:00,0.226,0.941
2015-07-18 09:00:00,0.258,0.868
2015-07-18 10:00:00,0.238,0.7
2015-07-18 11:00:00,0.246,0.903
2015-07-18 12:00:00,0.233,0.707
2015-07-18 13:00:00,0.244,0.731
2015-07-18 14:00:00,0.248,0.647
2015-07-18 15:00:00,0.231,0.817
2015-07-18 16:00:00,0.217,0.807
2015-07-18 17:00:00,0.229,0.839
2015-07-18 18:00:00,0.206,0.822
2015-07-18 19:00:00,0.2,1.116
2015-07-18 20:00:00,0.197,0.997
2015-07-18 21:00:00,0.189,0.817
2015-07-18 22:00:00,0.186,0.711
2015-07-18 23:00:00,0.195,0.845
2015-07-19 00:00:00,0.197,0.712
2015-07-19 01:00:00,0.211,0.774
2015-07-19 02:00:00,0.207,1.248
2015-07-19 03:00:00,0.224,0.926
2015-07-19 04:00:00,0.213,1.857
2015-07-19 05:00:00,0.235,1.68
2015-07-19 06:00:00,0.249,3.334
2015-07-19 07:00:00,0.242,4.482
2015-07-19 08:00:00,0.244,7.263
2015-07-19 09:00:00,0.242,4.633
2015-07-19 10:00:00,0.264,4.752
2015-07-19 11:00:00,0.244,5.42
2015-07-19 12:00:00,0.257,6.084
2015-07-19 13:00:00,0.224,4.179
2015-07-19 14:00:00,0.227,4.298
2015-07-19 15:00:00,0.22,6.446
2015-07-19 16:00:00,0.217,13.447
2015-07-19 17:00:00,0.191,2.288
2015-07-19 18:00:00,0.211,2.401
2015-07-19 19:00:00,0.193,4.393
2015-07-19 20:00:00,0.186,7.806
2015-07-19 21:00:00,0.184,4.055
2015-07-19 22:00:00,0.177,3.389
2015-07-19 23:00:00,0.182,3.546
2015-07-20 00:00:00,0.186,2.323
2015-07-20 01:00:00,0.189,2.522
2015-07-20 02:00:00,0.206,2.665
2015-07-20 03:00:00,0.207,2.684
2015-07-20 04:00:00,0.211,2.614
2015-07-20 05:00:00,0.248,1.992
2015-07-20 06:00:00,0.233,2.129
2015-07-20 07:00:00,0.235,1.975
2015-07-20 08:00:00,0.229,0.629
2015-07-20 09:00:00,0.209,0.808
2015-07-20 10:00:00,0.222,0.79
2015-07-20 11:00:00,0.224,0.036
2015-07-20 12:00:00,0.246,1.394
2015-07-20 13:00:00,0.249,2.452
2015-07-20 14:00:00,0.233,2.363
2015-07-20 15:00:00,0.242,2.623
2015-07-20 16:00:00,0.229,3.493
2015-07-20 17:00:00,0.2,3.507
2015-07-20 18:00:00,0.213,4.339
2015-07-20 19:00:00,0.209,1.325
2015-07-20 20:00:00,0.193,0.714
2015-07-20 21:00:00,0.187,1.034
2015-07-20 22:00:00,0.158,0.8
2015-07-20 23:00:00,0.178,1.145
2015-07-21 00:00:00,0.189,0.815
2015-07-21 01:00:00,0.178,1.062
2015-07-21 02:00:00,0.197,1.601
2015-07-21 03:00:00,0.198,2.962
2015-07-21 04:00:00,0.213,4.469
2015-07-21 05:00:00,0.224,4.148
2015-07-21 06:00:00,0.255,6.436
2015-07-21 07:00:00,0.246,5.39
2015-07-21 08:00:00,0.246,4.081
2015-07-21 09:00:00,0.264,6.173
2015-07-21 10:00:00,0.264,4.912
2015-07-21 11:00:00,0.269,4.619
2015-07-21 12:00:00,0.258,4.415
2015-07-21 13:00:00,0.246,4.002
2015-07-21 14:00:00,0.231,5.232
2015-07-21 15:00:00,0.235,4.829
2015-07-21 16:00:00,0.231,4.834
2015-07-21 17:00:00,0.207,4.424
2015-07-21 18:00:00,0.217,4.47
2015-07-21 19:00:00,0.215,6.038
2015-07-21 20:00:00,0.193,3.26
2015-07-21 21:00:00,0.18,2.108
2015-07-21 22:00:00,0.197,1.714
2015-07-21 23:00:00,0.173,1.596
2015-07-22 00:00:00,0.18,1.824
2015-07-22 01:00:00,0.211,2.011
2015-07-22 02:00:00,0.217,2.248
2015-07-22 03:00:00,0.227,2.525
2015-07-22 04:00:00,0.231,2.594
2015-07-22 05:00:00,0.238,2.366
2015-07-22 06:00:00,0.238,2.45
2015-07-22 07:00:00,0.253,3.129
2015-07-22 08:00:00,0.249,3.03
2015-07-22 09:00:00,0.24,3.094
2015-07-22 10:00:00,0.229,2.89
2015-07-22 11:00:00,0.22,2.843
2015-07-22 12:00:00,0.248,2.662
2015-07-22 13:00:00,0.229,2.883
2015-07-22 14:00:00,0.209,2.577
2015-07-22 15:00:00,0.217,2.631
2015-07-22 16:00:00,0.209,2.457
2015-07-22 17:00:00,0.206,2.419
2015-07-22 18:00:00,0.171,2.101
2015-07-22 19:00:00,0.16,1.903
2015-07-22 20:00:00,0.177,2.782
2015-07-22 21:00:00,0.18,1.876
2015-07-22 22:00:00,0.171,3.121
2015-07-22 23:00:00,0.178,2.595
2015-07-23 00:00:00,0.142,3.678
2015-07-23 01:00:00,0.178,6.358
2015-07-23 02:00:00,0.157,6.116
2015-07-23 03:00:00,0.169,11.269
2015-07-23 04:00:00,0.173,2.662
2015-07-23 05:00:00,0.204,3.094
2015-07-23 06:00:00,0.217,3.984
2015-07-23 07:00:00,0.229,4.341
2015-07-23 08:00:00,0.233,5.85
2015-07-23 09:00:00,0.218,6.418
2015-07-23 10:00:00,0.227,2.459
2015-07-23 11:00:00,0.215,1.759
2015-07-23 12:00:00,0.215,1.956
2015-07-23 13:00:00,0.204,2.049
2015-07-23 14:00:00,0.215,1.959
2015-07-23 15:00:00,0.226,4.501
2015-07-23 16:00:00,0.22,4.781
2015-07-23 17:00:00,0.213,1.989
2015-07-23 18:00:00,0.2,1.474
2015-07-23 19:00:00,0.198,1.377
2015-07-23 20:00:00,0.18,1.393
2015-07-23 21:00:00,0.189,3.266
2015-07-23 22:00:00,0.178,2.007
2015-07-23 23:00:00,0.167,1.742
2015-07-24 00:00:00,0.178,3.171
2015-07-24 01:00:00,0.169,4.505
2015-07-24 02:00:00,0.173,3.531
2015-07-24 03:00:00,0.18,4.582
2015-07-24 04:00:00,0.184,6.262
2015-07-24 05:00:00,0.206,7.858
2015-07-24 06:00:00,0.235,16.673
2015-07-24 07:00:00,0.217,18.276
2015-07-24 08:00:00,0.215,15.088
2015-07-24 09:00:00,0.222,12.113
2015-07-24 10:00:00,0.224,7.209
2015-07-24 11:00:00,0.251,6.145
2015-07-24 12:00:00,0.237,11.175
2015-07-24 13:00:00,0.248,6.223
2015-07-24 14:00:00,0.253,3.998
2015-07-24 15:00:00,0.213,3.564
2015-07-24 16:00:00,0.22,3.025
2015-07-24 17:00:00,0.186,14.724
2015-07-24 18:00:00,0.204,4.388
2015-07-24 19:00:00,0.207,1.018
2015-07-24 20:00:00,0.184,0.629
2015-07-24 21:00:00,0.186,0.796
2015-07-24 22:00:00,0.171,0.517
2015-07-24 23:00:00,0.187,1.497
2015-07-25 00:00:00,0.202,2.112
2015-07-25 01:00:00,0.18,0.982
2015-07-25 02:00:00,0.2,0.985
2015-07-25 03:00:00,0.191,2.125
2015-07-25 04:00:00,0.224,2.098
2015-07-25 05:00:00,0.211,1.681
2015-07-25 06:00:00,0.229,1.564
2015-07-25 07:00:00,0.229,1.537
2015-07-25 08:00:00,0.224,1.1
2015-07-25 09:00:00,0.237,1.224
2015-07-25 10:00:00,0.233,2.522
2015-07-25 11:00:00,0.24,3.276
2015-07-25 12:00:00,0.235,3.083
2015-07-25 13:00:00,0.233,3.067
2015-07-25 14:00:00,0.24,3.291
2015-07-25 15:00:00,0.253,2.215
2015-07-25 16:00:00,0.211,4.74
2015-07-25 17:00:00,0.193,1.31
2015-07-25 18:00:00,0.16,0.864
2015-07-25 19:00:00,0.169,0.66
2015-07-25 20:00:00,0.18,0.657
2015-07-25 21:00:00,0.166,6.826
2015-07-25 22:00:00,0.187,13.101
2015-07-25 23:00:00,0.171,3.9
2015-07-26 00:00:00,0.189,6.93
2015-07-26 01:00:00,0.186,14.976
2015-07-26 02:00:00,0.191,14.29
2015-07-26 03:00:00,0.218,12.287
2015-07-26 04:00:00,0.222,9.825
2015-07-26 05:00:00,0.218,12.171
2015-07-26 06:00:00,0.235,10.266
2015-07-26 07:00:00,0.22,6.043
2015-07-26 08:00:00,0.222,6.226
2015-07-26 09:00:00,0.211,4.179
2015-07-26 10:00:00,0.224,4.515
2015-07-26 11:00:00,0.246,4.286
2015-07-26 12:00:00,0.246,4.374
2015-07-26 13:00:00,0.233,4.826
2015-07-26 14:00:00,0.235,4.984
2015-07-26 15:00:00,0.229,7.727
2015-07-26 16:00:00,0.224,6.284
2015-07-26 17:00:00,0.215,3.713
2015-07-26 18:00:00,0.198,3.409
2015-07-26 19:00:00,0.207,3.036
2015-07-26 20:00:00,0.184,3.858
2015-07-26 21:00:00,0.175,2.643
2015-07-26 22:00:00,0.178,1.906
2015-07-26 23:00:00,0.186,8.579
2015-07-27 00:00:00,0.184,6.956
2015-07-27 01:00:00,0.213,4.517
2015-07-27 02:00:00,0.202,4.107
2015-07-27 03:00:00,0.211,8.13
2015-07-27 04:00:00,0.213,5.591
2015-07-27 05:00:00,0.218,11.332
2015-07-27 06:00:00,0.224,7.237
2015-07-27 07:00:00,0.24,10.654
2015-07-27 08:00:00,0.222,13.311
2015-07-27 09:00:00,0.218,15.788
2015-07-27 10:00:00,0.209,10.974
2015-07-27 11:00:00,0.217,9.295
2015-07-27 12:00:00,0.207,7.636
2015-07-27 13:00:00,0.233,6.943
2015-07-27 14:00:00,0.211,4.108
2015-07-27 15:00:00,0.22,3.109
2015-07-27 16:00:00,0.215,5.42
2015-07-27 17:00:00,0.204,10.148
2015-07-27 18:00:00,0.153,4.4
2015-07-27 19:00:00,0.182,15.674
2015-07-27 20:00:00,0.171,3.684
2015-07-27 21:00:00,0.18,2.952
2015-07-27 22:00:00,0.177,4.733
2015-07-27 23:00:00,0.195,2.652
2015-07-28 00:00:00,0.178,2.142
2015-07-28 01:00:00,0.177,1.714
2015-07-28 02:00:00,0.191,1.927
2015-07-28 03:00:00,0.184,2.19
2015-07-28 04:00:00,0.191,4.029
2015-07-28 05:00:00,0.189,5.477
2015-07-28 06:00:00,0.244,3.845
2015-07-28 07:00:00,0.249,3.887
2015-07-28 08:00:00,0.227,2.83
2015-07-28 09:00:00,0.233,3.195
2015-07-28 10:00:00,0.226,4.709
2015-07-28 11:00:00,0.231,4.907
2015-07-28 12:00:00,0.226,4.18
2015-07-28 13:00:00,0.24,5.134
2015-07-28 14:00:00,0.242,3.384
2015-07-28 15:00:00,0.248,6.773
2015-07-28 16:00:00,0.264,5.751
2015-07-28 17:00:00,0.224,13.389
2015-07-28 18:00:00,0.222,8.368
2015-07-28 19:00:00,0.207,7.408
2015-07-28 20:00:00,0.215,2.735
2015-07-28 21:00:00,0.175,3.298
2015-07-28 22:00:00,0.182,3.525
2015-07-28 23:00:00,0.182,1.841
2015-07-29 00:00:00,0.187,1.504
2015-07-29 01:00:00,0.215,4.127
2015-07-29 02:00:00,0.213,4.726
2015-07-29 03:00:00,0.229,9.731
2015-07-29 04:00:00,0.224,10.325
2015-07-29 05:00:00,0.227,2.742
2015-07-29 06:00:00,0.231,3.059
2015-07-29 07:00:00,0.238,4.402
2015-07-29 08:00:00,0.229,3.51
2015-07-29 09:00:00,0.233,5.105
2015-07-29 10:00:00,0.238,6.008
2015-07-29 11:00:00,0.242,10.701
2015-07-29 12:00:00,0.231,6.976
2015-07-29 13:00:00,0.242,1.791
2015-07-29 14:00:00,0.278,1.11
2015-07-29 15:00:00,0.284,1.386
2015-07-29 16:00:00,0.288,1.224
2015-07-29 17:00:00,0.255,1.217
2015-07-29 18:00:00,0.235,1.396
2015-07-29 19:00:00,0.233,1.126
2015-07-29 20:00:00,0.215,0.828
2015-07-29 21:00:00,0.182,0.918
2015-07-29 22:00:00,0.193,0.96
2015-07-29 23:00:00,0.184,0.543
2015-07-30 00:00:00,0.2,0.895
2015-07-30 01:00:00,0.182,1.005
2015-07-30 02:00:00,0.184,0.752
2015-07-30 03:00:00,0.171,1.009
2015-07-30 04:00:00,0.193,3.083
2015-07-30 05:00:00,0.213,3.832
2015-07-30 06:00:00,0.235,7.854
2015-07-30 07:00:00,0.251,2.888
2015-07-30 08:00:00,0.257,0.272
2015-07-30 09:00:00,0.233,0.214
2015-07-30 10:00:00,0.233,3.115
2015-07-30 11:00:00,0.233,0.809
2015-07-30 12:00:00,0.246,1.277
2015-07-30 13:00:00,0.249,1.602
2015-07-30 14:00:00,0.255,2.073
2015-07-30 15:00:00,0.237,0.983
2015-07-30 16:00:00,0.238,0.825
2015-07-30 17:00:00,0.213,0.726
2015-07-30 18:00:00,0.22,1.296
2015-07-30 19:00:00,0.207,0.44
2015-07-30 20:00:00,0.207,0.234
2015-07-30 21:00:00,0.144,0.577
2015-07-30 22:00:00,0.211,0.868
2015-07-30 23:00:00,0.153,0.811
2015-07-31 00:00:00,0.217,0.724
2015-07-31 01:00:00,0.258,0.772
2015-07-31 02:00:00,0.218,0.964
2015-07-31 03:00:00,0.202,6.341
2015-07-31 04:00:00,0.229,7.29
2015-07-31 05:00:00,0.251,9.175
2015-07-31 06:00:00,0.275,5.366
2015-07-31 07:00:00,0.28,9.658
2015-07-31 08:00:00,0.289,16.089
2015-07-31 09:00:00,0.278,16.444
2015-07-31 10:00:00,0.286,14.856
2015-07-31 11:00:00,0.289,9.456
2015-07-31 12:00:00,0.278,5.486
2015-07-31 13:00:00,0.286,6.76
2015-07-31 14:00:00,0.277,7.804
2015-07-31 15:00:00,0.278,4.39
2015-07-31 16:00:00,0.278,3.85
2015-07-31 17:00:00,0.266,5.259
2015-07-31 18:00:00,0.266,3.276
2015-07-31 19:00:00,0.24,3.836
2015-07-31 20:00:00,0.233,19.723
2015-07-31 21:00:00,0.218,11.64
2015-07-31 22:00:00,0.207,6.218
2015-07-31 23:00:00,0.233,4.251
2015-08-01 00:00:00,0.195,2.421
2015-08-01 01:00:00,0.186,1.99
2015-08-01 02:00:00,0.222,6.937
2015-08-01 03:00:00,0.249,4.014
2015-08-01 04:00:00,0.266,4.036
2015-08-01 05:00:00,0.271,4.176
2015-08-01 06:00:00,0.275,4.139
2015-08-01 07:00:00,0.271,5.285
2015-08-01 08:00:00,0.269,5.296
2015-08-01 09:00:00,0.278,5.958
2015-08-01 10:00:00,0.275,7.807
2015-08-01 11:00:00,0.273,14.308
2015-08-01 12:00:00,0.289,12.407
2015-08-01 13:00:00,0.289,15.414
2015-08-01 14:00:00,0.298,13.444
2015-08-01 15:00:00,0.291,4.606
2015-08-01 16:00:00,0.26,11.068
2015-08-01 17:00:00,0.242,6.443
2015-08-01 18:00:00,0.226,3.78
2015-08-01 19:00:00,0.213,1.267
2015-08-01 20:00:00,0.193,1.347
2015-08-01 21:00:00,0.2,2.272
2015-08-01 22:00:00,0.198,1.669
2015-08-01 23:00:00,0.206,0.263
2015-08-02 00:00:00,0.186,0.059
2015-08-02 01:00:00,0.186,0.182
2015-08-02 02:00:00,0.211,0.532
2015-08-02 03:00:00,0.222,8.708
2015-08-02 04:00:00,0.264,14.054
2015-08-02 05:00:00,0.253,15.221
2015-08-02 06:00:00,0.295,5.118
2015-08-02 07:00:00,0.289,1.607
2015-08-02 08:00:00,0.297,0.299
2015-08-02 09:00:00,0.28,0.203
2015-08-02 10:00:00,0.3,0.201
2015-08-02 11:00:00,0.293,0.286
2015-08-02 12:00:00,0.295,0.345
2015-08-02 13:00:00,0.306,2.242
2015-08-02 14:00:00,0.289,5.921
2015-08-02 15:00:00,0.311,5.987
2015-08-02 16:00:00,0.297,4.758
2015-08-02 17:00:00,0.298,3.727
2015-08-02 18:00:00,0.326,0.619
2015-08-02 19:00:00,0.297,2.313
2015-08-02 20:00:00,0.244,0.165
2015-08-02 21:00:00,0.251,0.046
2015-08-02 22:00:00,0.268,1.485
2015-08-02 23:00:00,0.266,2.22
2015-08-03 00:00:00,0.229,2.524
2015-08-03 01:00:00,0.237,5.488
2015-08-03 02:00:00,0.264,4.929
2015-08-03 03:00:00,0.298,3.605
2015-08-03 04:00:00,0.309,1.04
2015-08-03 05:00:00,0.377,1.452
2015-08-03 06:00:00,0.344,0.511
2015-08-03 07:00:00,0.344,0.131
2015-08-03 08:00:00,0.342,0.188
2015-08-03 09:00:00,0.317,0.077
2015-08-03 10:00:00,0.302,0.066
2015-08-03 11:00:00,0.329,0.113
2015-08-03 12:00:00,0.329,0.068
2015-08-03 13:00:00,0.318,0.085
2015-08-03 14:00:00,0.357,0.098
2015-08-03 15:00:00,0.375,0.556
2015-08-03 16:00:00,0.397,0.279
2015-08-03 17:00:00,0.351,0.176
2015-08-03 18:00:00,0.277,0.097
2015-08-03 19:00:00,0.269,0.195
2015-08-03 20:00:00,0.26,0.119
2015-08-03 21:00:00,0.238,0.189
2015-08-03 22:00:00,0.235,0.062
2015-08-03 23:00:00,0.262,0.203
2015-08-04 00:00:00,0.262,0.146
2015-08-04 01:00:00,0.291,0.322
2015-08-04 02:00:00,0.26,0.144
2015-08-04 03:00:00,0.337,0.209
2015-08-04 04:00:00,0.391,3.675
2015-08-04 05:00:00,0.428,3.15
2015-08-04 06:00:00,0.455,0.398
2015-08-04 07:00:00,0.422,0.281
2015-08-04 08:00:00,0.388,0.158
2015-08-04 09:00:00,0.36,0.04
2015-08-04 10:00:00,0.351,0.06
2015-08-04 11:00:00,0.384,0.211
2015-08-04 12:00:00,0.395,0.494
2015-08-04 13:00:00,0.388,1.31
2015-08-04 14:00:00,0.439,1.631
2015-08-04 15:00:00,0.391,1.731
2015-08-04 16:00:00,0.339,1.248
2015-08-04 17:00:00,0.266,1.675
2015-08-04 18:00:00,0.248,2.062
2015-08-04 19:00:00,0.213,4.052
2015-08-04 20:00:00,0.237,3.551
2015-08-04 21:00:00,0.215,3.732
2015-08-04 22:00:00,0.178,3.703
2015-08-04 23:00:00,0.226,3.703
2015-08-05 00:00:00,0.257,3.481
2015-08-05 01:00:00,0.211,2.928
2015-08-05 02:00:00,0.224,3.129
2015-08-05 03:00:00,0.273,3.136
2015-08-05 04:00:00,0.298,3.718
2015-08-05 05:00:00,0.351,3.744
2015-08-05 06:00:00,0.41,3.489
2015-08-05 07:00:00,0.46,3.709
2015-08-05 08:00:00,0.457,3.399
2015-08-05 09:00:00,0.428,2.247
2015-08-05 10:00:00,0.395,1.664
2015-08-05 11:00:00,0.395,1.788
2015-08-05 12:00:00,0.393,2.944
2015-08-05 13:00:00,0.391,3.949
2015-08-05 14:00:00,0.417,1.895
2015-08-05 15:00:00,0.41,0.903
2015-08-05 16:00:00,0.431,0.781
2015-08-05 17:00:00,0.348,2.378
2015-08-05 18:00:00,0.322,2.852
2015-08-05 19:00:00,0.258,1.029
2015-08-05 20:00:00,0.229,2.635
2015-08-05 21:00:00,0.218,1.59
2015-08-05 22:00:00,0.207,0.417
2015-08-05 23:00:00,0.213,1.23
2015-08-06 00:00:00,0.18,1.553
2015-08-06 01:00:00,0.186,1.269
2015-08-06 02:00:00,0.207,0.704
2015-08-06 03:00:00,0.22,1.017
2015-08-06 04:00:00,0.238,1.033
2015-08-06 05:00:00,0.298,1.992
2015-08-06 06:00:00,0.344,2.532
2015-08-06 07:00:00,0.355,2.231
2015-08-06 08:00:00,0.339,2.829
2015-08-06 09:00:00,0.346,3.28
2015-08-06 10:00:00,0.328,3.119
2015-08-06 11:00:00,0.329,2.479
2015-08-06 12:00:00,0.371,2.237
2015-08-06 13:00:00,0.366,2.915
2015-08-06 14:00:00,0.368,2.937
2015-08-06 15:00:00,0.371,2.845
2015-08-06 16:00:00,0.302,2.726
2015-08-06 17:00:00,0.238,2.533
2015-08-06 18:00:00,0.207,2.798
2015-08-06 19:00:00,0.229,1.806
2015-08-06 20:00:00,0.224,1.395
2015-08-06 21:00:00,0.222,0.822
2015-08-06 22:00:00,0.217,0.606
2015-08-06 23:00:00,0.22,0.61
2015-08-07 00:00:00,0.242,0.465
2015-08-07 01:00:00,0.269,0.303
2015-08-07 02:00:00,0.326,1.536
2015-08-07 03:00:00,0.36,2.563
2015-08-07 04:00:00,0.36,1.833
2015-08-07 05:00:00,0.36,0.259
2015-08-07 06:00:00,0.318,0.371
2015-08-07 07:00:00,0.295,0.275
2015-08-07 08:00:00,0.339,0.223
2015-08-07 09:00:00,0.313,0.128
2015-08-07 10:00:00,0.337,0.444
2015-08-07 11:00:00,0.359,0.258
2015-08-07 12:00:00,0.369,0.34
2015-08-07 13:00:00,0.419,1.051
2015-08-07 14:00:00,0.475,1.205
2015-08-07 15:00:00,0.397,0.189
2015-08-07 16:00:00,0.339,0.261
2015-08-07 17:00:00,0.298,0.331
2015-08-07 18:00:00,0.277,0.449
2015-08-07 19:00:00,0.291,2.174
2015-08-07 20:00:00,0.266,0.441
2015-08-07 21:00:00,0.328,0.574
2015-08-07 22:00:00,0.309,1.049
2015-08-07 23:00:00,0.275,0.893
2015-08-08 00:00:00,0.291,0.824
2015-08-08 01:00:00,0.313,0.538
2015-08-08 02:00:00,0.326,0.638
2015-08-08 03:00:00,0.337,0.774
2015-08-08 04:00:00,0.42,0.697
2015-08-08 05:00:00,0.455,0.749
2015-08-08 06:00:00,0.482,0.793
2015-08-08 07:00:00,0.477,0.758
2015-08-08 08:00:00,0.488,0.544
2015-08-08 09:00:00,0.46,0.613
2015-08-08 10:00:00,0.442,0.79
2015-08-08 11:00:00,0.444,0.699
2015-08-08 12:00:00,0.459,0.452
2015-08-08 13:00:00,0.488,0.686
2015-08-08 14:00:00,0.462,0.317
2015-08-08 15:00:00,0.5,0.413
2015-08-08 16:00:00,0.493,0.3
2015-08-08 17:00:00,0.486,0.43
2015-08-08 18:00:00,0.453,0.456
2015-08-08 19:00:00,0.41,0.616
2015-08-08 20:00:00,0.329,0.303
2015-08-08 21:00:00,0.309,0.572
2015-08-08 22:00:00,0.275,0.631
2015-08-08 23:00:00,0.282,1.3
2015-08-09 00:00:00,0.3,0.872
2015-08-09 01:00:00,0.317,0.497
2015-08-09 02:00:00,0.395,0.951
2015-08-09 03:00:00,0.448,0.6
2015-08-09 04:00:00,0.486,0.405
2015-08-09 05:00:00,0.506,0.538
2015-08-09 06:00:00,0.513,0.459
2015-08-09 07:00:00,0.506,0.731
2015-08-09 08:00:00,0.502,0.602
2015-08-09 09:00:00,0.495,0.627
2015-08-09 10:00:00,0.499,0.518
2015-08-09 11:00:00,0.444,0.589
2015-08-09 12:00:00,0.468,0.624
2015-08-09 13:00:00,0.471,0.926
2015-08-09 14:00:00,0.439,1.201
2015-08-09 15:00:00,0.42,1.145
2015-08-09 16:00:00,0.329,1.219
2015-08-09 17:00:00,0.339,1.297
2015-08-09 18:00:00,0.273,1.198
2015-08-09 19:00:00,0.291,1.205
2015-08-09 20:00:00,0.351,1.256
2015-08-09 21:00:00,0.309,1.51
2015-08-09 22:00:00,0.346,1.431
2015-08-09 23:00:00,0.346,1.269
2015-08-10 00:00:00,0.362,1.166
2015-08-10 01:00:00,0.402,1.094
2015-08-10 02:00:00,0.408,1.026
2015-08-10 03:00:00,0.47,1.29
2015-08-10 04:00:00,0.593,0.952
2015-08-10 05:00:00,0.615,0.852
2015-08-10 06:00:00,0.622,0.856
2015-08-10 07:00:00,0.639,1.008
2015-08-10 08:00:00,0.639,0.939
2015-08-10 09:00:00,0.615,0.928
2015-08-10 10:00:00,0.601,0.942
2015-08-10 11:00:00,0.591,0.877
2015-08-10 12:00:00,0.561,0.834
2015-08-10 13:00:00,0.588,0.803
2015-08-10 14:00:00,0.575,0.833
2015-08-10 15:00:00,0.573,0.803
2015-08-10 16:00:00,0.586,0.785
2015-08-10 17:00:00,0.566,0.852
2015-08-10 18:00:00,0.513,0.86
2015-08-10 19:00:00,0.497,0.773
2015-08-10 20:00:00,0.457,0.796
2015-08-10 21:00:00,0.408,0.773
2015-08-10 22:00:00,0.382,0.689
2015-08-10 23:00:00,0.384,0.733
2015-08-11 00:00:00,0.408,0.758
2015-08-11 01:00:00,0.431,0.768
2015-08-11 02:00:00,0.495,0.747
2015-08-11 03:00:00,0.526,0.749
2015-08-11 04:00:00,0.584,0.846
2015-08-11 05:00:00,0.612,1.211
2015-08-11 06:00:00,0.695,0.808
2015-08-11 07:00:00,0.71,0.755
2015-08-11 08:00:00,0.686,0.727
2015-08-11 09:00:00,0.666,0.727
2015-08-11 10:00:00,0.662,0.758
2015-08-11 11:00:00,0.677,0.781
2015-08-11 12:00:00,0.682,0.733
2015-08-11 13:00:00,0.686,0.735
2015-08-11 14:00:00,0.704,0.747
2015-08-11 15:00:00,0.682,0.749
2015-08-11 16:00:00,0.588,0.655
2015-08-11 17:00:00,0.515,0.658
2015-08-11 18:00:00,0.46,0.702
2015-08-11 19:00:00,0.406,0.648
2015-08-11 20:00:00,0.391,0.651
2015-08-11 21:00:00,0.44,0.633
2015-08-11 22:00:00,0.386,0.648
2015-08-11 23:00:00,0.384,0.66
2015-08-12 00:00:00,0.389,0.689
2015-08-12 01:00:00,0.415,0.627
2015-08-12 02:00:00,0.444,0.698
2015-08-12 03:00:00,0.47,0.641
2015-08-12 04:00:00,0.491,0.613
2015-08-12 05:00:00,0.626,0.532
2015-08-12 06:00:00,0.706,0.629
2015-08-12 07:00:00,0.701,0.739
2015-08-12 08:00:00,0.682,0.69
2015-08-12 09:00:00,0.692,0.778
2015-08-12 10:00:00,0.668,0.96
2015-08-12 11:00:00,0.664,0.594
2015-08-12 12:00:00,0.652,0.591
2015-08-12 13:00:00,0.686,0.565
2015-08-12 14:00:00,0.673,0.623
2015-08-12 15:00:00,0.613,0.594
2015-08-12 16:00:00,0.471,0.382
2015-08-12 17:00:00,0.382,0.361
2015-08-12 18:00:00,0.366,0.36
2015-08-12 19:00:00,0.382,0.373
2015-08-12 20:00:00,0.386,0.386
2015-08-12 21:00:00,0.375,0.382
2015-08-12 22:00:00,0.342,0.413
2015-08-12 23:00:00,0.337,0.435
2015-08-13 00:00:00,0.38,0.521
2015-08-13 01:00:00,0.408,0.577
2015-08-13 02:00:00,0.497,0.638
2015-08-13 03:00:00,0.615,0.648
2015-08-13 04:00:00,0.659,0.591
2015-08-13 05:00:00,0.648,0.428
2015-08-13 06:00:00,0.641,0.444
2015-08-13 07:00:00,0.708,0.701
2015-08-13 08:00:00,0.695,0.894
2015-08-13 09:00:00,0.69,0.752
2015-08-13 10:00:00,0.728,0.789
2015-08-13 11:00:00,0.708,0.805
2015-08-13 12:00:00,0.719,1.036
2015-08-13 13:00:00,0.697,0.763
2015-08-13 14:00:00,0.728,0.853
2015-08-13 15:00:00,0.775,0.879
2015-08-13 16:00:00,0.757,0.959
2015-08-13 17:00:00,0.641,0.991
2015-08-13 18:00:00,0.635,1.057
2015-08-13 19:00:00,0.486,0.988
2015-08-13 20:00:00,0.524,1.411
2015-08-13 21:00:00,0.531,1.132
2015-08-13 22:00:00,0.51,1.164
2015-08-13 23:00:00,0.533,1.421
2015-08-14 00:00:00,0.53,1.105
2015-08-14 01:00:00,0.491,1.081
2015-08-14 02:00:00,0.539,1.057
2015-08-14 03:00:00,0.501,1.048
2015-08-14 04:00:00,0.737,0.872
2015-08-14 05:00:00,0.741,0.919
2015-08-14 06:00:00,0.821,0.891
2015-08-14 07:00:00,0.804,0.891
2015-08-14 08:00:00,0.741,0.882
2015-08-14 09:00:00,0.697,0.844
2015-08-14 10:00:00,0.648,0.849
2015-08-14 11:00:00,0.653,1.202
2015-08-14 12:00:00,0.679,1.189
2015-08-14 13:00:00,0.697,1.326
2015-08-14 14:00:00,0.759,1.038
2015-08-14 15:00:00,0.783,1.051
2015-08-14 16:00:00,0.817,1.173
2015-08-14 17:00:00,0.808,1.354
2015-08-14 18:00:00,0.723,1.171
2015-08-14 19:00:00,0.672,1.132
2015-08-14 20:00:00,0.471,1.474
2015-08-14 21:00:00,0.508,2.288
2015-08-14 22:00:00,0.519,1.701
2015-08-14 23:00:00,0.515,1.146
2015-08-15 00:00:00,0.462,0.956
2015-08-15 01:00:00,0.439,1.101
2015-08-15 02:00:00,0.548,1.243
2015-08-15 03:00:00,0.528,1.444
2015-08-15 04:00:00,0.464,0.961
2015-08-15 05:00:00,0.577,1.015
2015-08-15 06:00:00,0.715,1.096
2015-08-15 07:00:00,0.753,1.087
2015-08-15 08:00:00,0.743,0.901
2015-08-15 09:00:00,0.697,0.833
2015-08-15 10:00:00,0.681,0.874
2015-08-15 11:00:00,0.681,1.358
2015-08-15 12:00:00,0.686,0.97
2015-08-15 13:00:00,0.673,0.933
2015-08-15 14:00:00,0.655,0.877
2015-08-15 15:00:00,0.668,0.897
2015-08-15 16:00:00,0.666,0.901
2015-08-15 17:00:00,0.653,0.885
2015-08-15 18:00:00,0.619,0.834
2015-08-15 19:00:00,0.482,0.711
2015-08-15 20:00:00,0.44,0.749
2015-08-15 21:00:00,0.444,0.644
2015-08-15 22:00:00,0.45,0.599
2015-08-15 23:00:00,0.44,0.621
2015-08-16 00:00:00,0.444,0.651
2015-08-16 01:00:00,0.513,0.66
2015-08-16 02:00:00,0.537,0.641
2015-08-16 03:00:00,0.601,0.638
2015-08-16 04:00:00,0.712,0.738
2015-08-16 05:00:00,0.757,0.669
2015-08-16 06:00:00,0.79,0.821
2015-08-16 07:00:00,0.817,0.79
2015-08-16 08:00:00,0.784,0.765
2015-08-16 09:00:00,0.768,0.707
2015-08-16 10:00:00,0.774,0.961
2015-08-16 11:00:00,0.775,0.838
2015-08-16 12:00:00,0.772,0.815
2015-08-16 13:00:00,0.743,0.921
2015-08-16 14:00:00,0.777,0.844
2015-08-16 15:00:00,0.764,0.912
2015-08-16 16:00:00,0.717,0.745
2015-08-16 17:00:00,0.646,0.835
2015-08-16 18:00:00,0.615,0.796
2015-08-16 19:00:00,0.513,0.835
2015-08-16 20:00:00,0.48,0.811
2015-08-16 21:00:00,0.411,0.648
2015-08-16 22:00:00,0.415,0.639
2015-08-16 23:00:00,0.437,0.641
2015-08-17 00:00:00,0.42,0.79
2015-08-17 01:00:00,0.477,0.824
2015-08-17 02:00:00,0.504,0.881
2015-08-17 03:00:00,0.624,0.885
2015-08-17 04:00:00,0.666,1.026
2015-08-17 05:00:00,0.681,0.935
2015-08-17 06:00:00,0.713,1.168
2015-08-17 07:00:00,0.699,1.213
2015-08-17 08:00:00,0.666,1.217
2015-08-17 09:00:00,0.652,1.059
2015-08-17 10:00:00,0.622,1.135
2015-08-17 11:00:00,0.622,1.202
2015-08-17 12:00:00,0.626,1.133
2015-08-17 13:00:00,0.617,1.352
2015-08-17 14:00:00,0.65,1.767
2015-08-17 15:00:00,0.637,1.562
2015-08-17 16:00:00,0.652,1.023
2015-08-17 17:00:00,0.641,1.073
2015-08-17 18:00:00,0.502,1.661
2015-08-17 19:00:00,0.442,1.645
2015-08-17 20:00:00,0.437,1.746
2015-08-17 21:00:00,0.393,1.859
2015-08-17 22:00:00,0.428,1.73
2015-08-17 23:00:00,0.433,1.72
2015-08-18 00:00:00,0.417,1.49
2015-08-18 01:00:00,0.411,1.553
2015-08-18 02:00:00,0.448,1.708
2015-08-18 03:00:00,0.464,1.853
2015-08-18 04:00:00,0.504,2.155
2015-08-18 05:00:00,0.61,1.502
2015-08-18 06:00:00,0.726,1.307
2015-08-18 07:00:00,0.764,1.171
2015-08-18 08:00:00,0.757,0.983
2015-08-18 09:00:00,0.724,1.015
2015-08-18 10:00:00,0.712,1.083
2015-08-18 11:00:00,0.682,1.286
2015-08-18 12:00:00,0.652,1.238
2015-08-18 13:00:00,0.703,1.091
2015-08-18 14:00:00,0.697,1.05
2015-08-18 15:00:00,0.672,0.905
2015-08-18 16:00:00,0.673,0.975
2015-08-18 17:00:00,0.557,1.049
2015-08-18 18:00:00,0.522,1.483
2015-08-18 19:00:00,0.47,1.192
2015-08-18 20:00:00,0.419,0.815
2015-08-18 21:00:00,0.388,0.823
2015-08-18 22:00:00,0.362,0.761
2015-08-18 23:00:00,0.349,0.567
2015-08-19 00:00:00,0.324,0.57
2015-08-19 01:00:00,0.304,0.703
2015-08-19 02:00:00,0.355,0.743
2015-08-19 03:00:00,0.342,0.723
2015-08-19 04:00:00,0.389,0.721
2015-08-19 05:00:00,0.48,0.558
2015-08-19 06:00:00,0.508,0.439
2015-08-19 07:00:00,0.535,0.503
2015-08-19 08:00:00,0.517,0.467
2015-08-19 09:00:00,0.537,0.547
2015-08-19 10:00:00,0.519,0.622
2015-08-19 11:00:00,0.497,0.625
2015-08-19 12:00:00,0.524,0.786
2015-08-19 13:00:00,0.506,0.823
2015-08-19 14:00:00,0.513,0.724
2015-08-19 15:00:00,0.506,0.678
2015-08-19 16:00:00,0.462,0.858
2015-08-19 17:00:00,0.437,1.021
2015-08-19 18:00:00,0.371,1.078
2015-08-19 19:00:00,0.318,0.914
2015-08-19 20:00:00,0.318,0.922
2015-08-19 21:00:00,0.264,0.882
2015-08-19 22:00:00,0.242,1.019
2015-08-19 23:00:00,0.242,0.857
2015-08-20 00:00:00,0.242,0.828
2015-08-20 01:00:00,0.282,0.72
2015-08-20 02:00:00,0.271,0.742
2015-08-20 03:00:00,0.337,0.753
2015-08-20 04:00:00,0.386,0.79
2015-08-20 05:00:00,0.462,0.927
2015-08-20 06:00:00,0.506,0.956
2015-08-20 07:00:00,0.517,0.99
2015-08-20 08:00:00,0.526,0.954
2015-08-20 09:00:00,0.502,0.948
2015-08-20 10:00:00,0.539,0.854
2015-08-20 11:00:00,0.57,0.889
2015-08-20 12:00:00,0.541,0.891
2015-08-20 13:00:00,0.504,0.874
2015-08-20 14:00:00,0.484,0.904
2015-08-20 15:00:00,0.455,0.473
2015-08-20 16:00:00,0.391,0.691
2015-08-20 17:00:00,0.344,0.806
2015-08-20 18:00:00,0.304,0.66
2015-08-20 19:00:00,0.229,0.512
2015-08-20 20:00:00,0.249,0.683
2015-08-20 21:00:00,0.211,0.513
2015-08-20 22:00:00,0.257,0.473
2015-08-20 23:00:00,0.237,0.382
2015-08-21 00:00:00,0.275,0.503
2015-08-21 01:00:00,0.277,0.62
2015-08-21 02:00:00,0.28,0.721
2015-08-21 03:00:00,0.257,0.731
2015-08-21 04:00:00,0.348,0.647
2015-08-21 05:00:00,0.446,0.556
2015-08-21 06:00:00,0.457,0.603
2015-08-21 07:00:00,0.535,0.633
2015-08-21 08:00:00,0.562,0.612
2015-08-21 09:00:00,0.561,0.584
2015-08-21 10:00:00,0.575,0.555
2015-08-21 11:00:00,0.571,0.566
2015-08-21 12:00:00,0.564,0.584
2015-08-21 13:00:00,0.579,0.562
2015-08-21 14:00:00,0.597,0.61
2015-08-21 15:00:00,0.541,0.872
2015-08-21 16:00:00,0.541,0.915
2015-08-21 17:00:00,0.41,0.828
2015-08-21 18:00:00,0.408,0.857
2015-08-21 19:00:00,0.368,0.886
2015-08-21 20:00:00,0.38,0.83
2015-08-21 21:00:00,0.346,0.807
2015-08-21 22:00:00,0.277,0.682
2015-08-21 23:00:00,0.3,0.594
2015-08-22 00:00:00,0.297,0.578
2015-08-22 01:00:00,0.355,0.625
2015-08-22 02:00:00,0.382,0.7
2015-08-22 03:00:00,0.426,0.813
2015-08-22 04:00:00,0.48,0.837
2015-08-22 05:00:00,0.526,0.899
2015-08-22 06:00:00,0.546,0.882
2015-08-22 07:00:00,0.57,0.805
2015-08-22 08:00:00,0.577,0.773
2015-08-22 09:00:00,0.546,0.676
2015-08-22 10:00:00,0.553,0.632
2015-08-22 11:00:00,0.544,0.676
2015-08-22 12:00:00,0.561,0.68
2015-08-22 13:00:00,0.559,0.72
2015-08-22 14:00:00,0.55,0.721
2015-08-22 15:00:00,0.561,0.784
2015-08-22 16:00:00,0.561,0.781
2015-08-22 17:00:00,0.428,0.794
2015-08-22 18:00:00,0.433,0.862
2015-08-22 19:00:00,0.426,0.825
2015-08-22 20:00:00,0.397,0.809
2015-08-22 21:00:00,0.335,0.79
2015-08-22 22:00:00,0.326,0.842
2015-08-22 23:00:00,0.32,0.902
2015-08-23 00:00:00,0.317,0.913
2015-08-23 01:00:00,0.353,0.881
2015-08-23 02:00:00,0.339,0.883
2015-08-23 03:00:00,0.389,0.926
2015-08-23 04:00:00,0.464,0.979
2015-08-23 05:00:00,0.508,1.002
2015-08-23 06:00:00,0.53,1.115
2015-08-23 07:00:00,0.553,1.079
2015-08-23 08:00:00,0.555,0.962
2015-08-23 09:00:00,0.564,0.916
2015-08-23 10:00:00,0.559,0.819
2015-08-23 11:00:00,0.561,0.657
2015-08-23 12:00:00,0.57,0.546
2015-08-23 13:00:00,0.564,0.574
2015-08-23 14:00:00,0.537,0.622
2015-08-23 15:00:00,0.51,2.05
2015-08-23 16:00:00,0.539,2.743
2015-08-23 17:00:00,0.517,2.327
2015-08-23 18:00:00,0.422,1.17
2015-08-23 19:00:00,0.362,1.317
2015-08-23 20:00:00,0.326,0.966
2015-08-23 21:00:00,0.293,1.202
2015-08-23 22:00:00,0.269,1.229
2015-08-23 23:00:00,0.26,1.288
2015-08-24 00:00:00,0.306,1.214
2015-08-24 01:00:00,0.282,1.772
2015-08-24 02:00:00,0.329,1.857
2015-08-24 03:00:00,0.424,1.463
2015-08-24 04:00:00,0.602,1.252
2015-08-24 05:00:00,0.808,1.058
2015-08-24 06:00:00,0.848,1.028
2015-08-24 07:00:00,0.673,0.965
2015-08-24 08:00:00,0.642,1.097
2015-08-24 09:00:00,0.637,0.803
2015-08-24 10:00:00,0.588,0.681
2015-08-24 11:00:00,0.617,0.946
2015-08-24 12:00:00,0.664,0.944
2015-08-24 13:00:00,0.684,0.872
2015-08-24 14:00:00,0.588,0.737
2015-08-24 15:00:00,0.546,0.895
2015-08-24 16:00:00,0.453,0.733
2015-08-24 17:00:00,0.502,0.667
2015-08-24 18:00:00,0.661,0.733
2015-08-24 19:00:00,0.686,0.683
2015-08-24 20:00:00,0.695,0.79
2015-08-24 21:00:00,0.531,1.9
2015-08-24 22:00:00,0.541,0.993
2015-08-24 23:00:00,0.511,1.266
2015-08-25 00:00:00,0.451,1.498
2015-08-25 01:00:00,0.497,1.285
2015-08-25 02:00:00,0.517,1.218
2015-08-25 03:00:00,0.535,1.402
2015-08-25 04:00:00,0.592,1.435
2015-08-25 05:00:00,0.633,3.765
2015-08-25 06:00:00,0.648,1.926
2015-08-25 07:00:00,0.619,0.86
2015-08-25 08:00:00,0.542,0.982
2015-08-25 09:00:00,0.519,1.214
2015-08-25 10:00:00,0.511,0.933
2015-08-25 11:00:00,0.539,1.015
2015-08-25 12:00:00,0.544,1.097
2015-08-25 13:00:00,0.524,0.982
2015-08-25 14:00:00,0.521,0.825
2015-08-25 15:00:00,0.528,0.685
2015-08-25 16:00:00,0.544,0.792
2015-08-25 17:00:00,0.557,0.751
2015-08-25 18:00:00,0.397,0.771
2015-08-25 19:00:00,0.395,0.822
2015-08-25 20:00:00,0.419,0.856
2015-08-25 21:00:00,0.479,0.882
2015-08-25 22:00:00,0.468,0.937
2015-08-25 23:00:00,0.51,0.934
2015-08-26 00:00:00,0.593,1.105
2015-08-26 01:00:00,0.606,1.334
2015-08-26 02:00:00,0.648,0.794
2015-08-26 03:00:00,0.708,1.151
2015-08-26 04:00:00,0.905,0.92
2015-08-26 05:00:00,0.826,0.739
2015-08-26 06:00:00,0.819,0.764
2015-08-26 07:00:00,0.794,1.14
2015-08-26 08:00:00,0.721,0.833
2015-08-26 09:00:00,0.682,0.738
2015-08-26 10:00:00,0.63,0.714
2015-08-26 11:00:00,0.668,0.649
2015-08-26 12:00:00,0.657,0.746
2015-08-26 13:00:00,0.659,1.1
2015-08-26 14:00:00,0.659,1.409
2015-08-26 15:00:00,0.648,1.109
2015-08-26 16:00:00,0.712,1.046
2015-08-26 17:00:00,0.63,1.176
2015-08-26 18:00:00,0.571,1.138
2015-08-26 19:00:00,0.541,1.107
2015-08-26 20:00:00,0.46,1.064
2015-08-26 21:00:00,0.43,1.116
2015-08-26 22:00:00,0.455,1.103
2015-08-26 23:00:00,0.488,1.02
2015-08-27 00:00:00,0.473,1.107
2015-08-27 01:00:00,0.515,1.163
2015-08-27 02:00:00,0.584,1.247
2015-08-27 03:00:00,0.566,1.043
2015-08-27 04:00:00,0.732,1.034
2015-08-27 05:00:00,0.848,1.071
2015-08-27 06:00:00,0.89,1.186
2015-08-27 07:00:00,0.877,1.151
2015-08-27 08:00:00,0.835,1.14
2015-08-27 09:00:00,0.844,1.088
2015-08-27 10:00:00,0.826,1.047
2015-08-27 11:00:00,0.79,0.961
2015-08-27 12:00:00,0.75,0.879
2015-08-27 13:00:00,0.803,0.819
2015-08-27 14:00:00,0.835,0.805
2015-08-27 15:00:00,0.854,0.814
2015-08-27 16:00:00,0.788,0.829
2015-08-27 17:00:00,0.675,0.809
2015-08-27 18:00:00,0.642,0.833
2015-08-27 19:00:00,0.522,0.843
2015-08-27 20:00:00,0.531,0.871
2015-08-27 21:00:00,0.553,0.86
2015-08-27 22:00:00,0.544,0.869
2015-08-27 23:00:00,0.599,0.91
2015-08-28 00:00:00,0.564,0.94
2015-08-28 01:00:00,0.601,0.966
2015-08-28 02:00:00,0.666,1.03
2015-08-28 03:00:00,0.719,1.049
2015-08-28 04:00:00,0.83,1.051
2015-08-28 05:00:00,1.125,1.149
2015-08-28 06:00:00,1.163,1.163
2015-08-28 07:00:00,1.05,1.059
2015-08-28 08:00:00,1.008,0.999
2015-08-28 09:00:00,1.03,1.047
2015-08-28 10:00:00,1.043,1.106
2015-08-28 11:00:00,1.037,1.166
2015-08-28 12:00:00,1.067,1.254
2015-08-28 13:00:00,1.099,1.206
2015-08-28 14:00:00,1.074,1.213
2015-08-28 15:00:00,1.108,1.17
2015-08-28 16:00:00,1.081,1.114
2015-08-28 17:00:00,0.965,1.082
2015-08-28 18:00:00,0.834,1.068
2015-08-28 19:00:00,0.719,1.103
2015-08-28 20:00:00,0.83,1.111
2015-08-28 21:00:00,0.786,1.126
2015-08-28 22:00:00,0.732,1.181
2015-08-28 23:00:00,0.719,1.211
2015-08-29 00:00:00,0.71,1.204
2015-08-29 01:00:00,0.857,1.254
2015-08-29 02:00:00,0.999,1.287
2015-08-29 03:00:00,1.043,1.331
2015-08-29 04:00:00,1.276,1.417
2015-08-29 05:00:00,1.356,1.366
2015-08-29 06:00:00,1.29,1.411
2015-08-29 07:00:00,1.152,1.328
2015-08-29 08:00:00,1.108,1.268
2015-08-29 09:00:00,1.114,1.321
2015-08-29 10:00:00,1.056,1.302
2015-08-29 11:00:00,1.074,1.306
2015-08-29 12:00:00,1.056,1.238
2015-08-29 13:00:00,1.05,1.277
2015-08-29 14:00:00,1.148,1.336
2015-08-29 15:00:00,1.407,1.489
2015-08-29 16:00:00,1.407,1.489
2015-08-29 17:00:00,1.32,1.477
2015-08-29 18:00:00,1.187,1.414
2015-08-29 19:00:00,1.156,1.493
2015-08-29 20:00:00,0.874,1.366
2015-08-29 21:00:00,0.741,1.221
2015-08-29 22:00:00,0.783,1.157
2015-08-29 23:00:00,0.743,1.29
2015-08-30 00:00:00,0.719,1.204
2015-08-30 01:00:00,0.692,1.088
2015-08-30 02:00:00,0.753,1.11
2015-08-30 03:00:00,0.823,1.001
2015-08-30 04:00:00,1.019,0.925
2015-08-30 05:00:00,1.176,0.923
2015-08-30 06:00:00,1.168,0.919
2015-08-30 07:00:00,1.048,0.865
2015-08-30 08:00:00,1.046,0.762
2015-08-30 09:00:00,0.988,0.711
2015-08-30 10:00:00,0.963,0.682
2015-08-30 11:00:00,0.981,0.646
2015-08-30 12:00:00,0.917,0.628
2015-08-30 13:00:00,0.968,0.619
2015-08-30 14:00:00,0.89,0.661
2015-08-30 15:00:00,0.941,0.792
2015-08-30 16:00:00,0.956,0.702
2015-08-30 17:00:00,0.945,0.679
2015-08-30 18:00:00,0.684,0.64
2015-08-30 19:00:00,0.673,0.648
2015-08-30 20:00:00,0.617,0.663
2015-08-30 21:00:00,0.555,0.639
2015-08-30 22:00:00,0.561,0.649
2015-08-30 23:00:00,0.632,0.62
2015-08-31 00:00:00,0.743,0.673
2015-08-31 01:00:00,0.868,0.674
2015-08-31 02:00:00,1.012,0.745
2015-08-31 03:00:00,1.065,0.825
2015-08-31 04:00:00,1.101,0.723
2015-08-31 05:00:00,1.127,0.681
2015-08-31 06:00:00,1.043,0.727
2015-08-31 07:00:00,1.008,0.657
2015-08-31 08:00:00,1.025,0.701
2015-08-31 09:00:00,1.026,0.698
2015-08-31 10:00:00,1.061,0.669
2015-08-31 11:00:00,1.065,0.603
2015-08-31 12:00:00,1.019,0.685
2015-08-31 13:00:00,1.065,0.654
2015-08-31 14:00:00,1.037,0.686
2015-08-31 15:00:00,1.05,0.722
2015-08-31 16:00:00,1.052,0.74
2015-08-31 17:00:00,0.895,0.712
2015-08-31 18:00:00,0.597,0.723
2015-08-31 19:00:00,0.504,0.695
2015-08-31 20:00:00,0.402,0.761
2015-08-31 21:00:00,0.399,0.766
2015-08-31 22:00:00,0.428,0.838
2015-08-31 23:00:00,0.531,0.821
2015-09-01 00:00:00,0.684,0.838
2015-09-01 01:00:00,1.005,0.977
2015-09-01 02:00:00,1.039,1.175
2015-09-01 03:00:00,1.101,1.124
2015-09-01 04:00:00,1.294,1.03
2015-09-01 05:00:00,1.225,1.005
2015-09-01 06:00:00,1.21,0.903
2015-09-01 07:00:00,1.218,0.905
2015-09-01 08:00:00,1.198,0.996
2015-09-01 09:00:00,1.227,1.107
2015-09-01 10:00:00,1.196,1.04
2015-09-01 11:00:00,1.232,0.983
2015-09-01 12:00:00,1.274,0.985
2015-09-01 13:00:00,1.303,0.951
2015-09-01 14:00:00,1.252,0.958
2015-09-01 15:00:00,1.221,0.902
2015-09-01 16:00:00,1.21,0.807
2015-09-01 17:00:00,0.957,0.813
2015-09-01 18:00:00,0.75,0.845
2015-09-01 19:00:00,0.642,0.765
2015-09-01 20:00:00,0.544,0.809
2015-09-01 21:00:00,0.602,0.939
2015-09-01 22:00:00,0.664,0.935
2015-09-01 23:00:00,0.815,0.834
2015-09-02 00:00:00,0.75,0.82
2015-09-02 01:00:00,0.974,0.843
2015-09-02 02:00:00,0.946,0.996
2015-09-02 03:00:00,1.121,0.958
2015-09-02 04:00:00,1.097,0.927
2015-09-02 05:00:00,1.154,0.917
2015-09-02 06:00:00,1.188,0.888
2015-09-02 07:00:00,1.143,0.961
2015-09-02 08:00:00,1.147,0.939
2015-09-02 09:00:00,1.19,0.968
2015-09-02 10:00:00,1.094,0.955
2015-09-02 11:00:00,1.216,1.01
2015-09-02 12:00:00,1.187,1.287
2015-09-02 13:00:00,1.201,1.178
2015-09-02 14:00:00,1.194,1.333
2015-09-02 15:00:00,1.236,1.188
2015-09-02 16:00:00,1.25,1.527
2015-09-02 17:00:00,1.443,1.316
2015-09-02 18:00:00,1.387,1.285
2015-09-02 19:00:00,1.167,1.287
2015-09-02 20:00:00,1.059,1.823
2015-09-02 21:00:00,1.085,1.644
2015-09-02 22:00:00,1.152,1.203
2015-09-02 23:00:00,1.003,1.281
2015-09-03 00:00:00,0.895,1.299
2015-09-03 01:00:00,1.034,1.538
2015-09-03 02:00:00,1.238,1.632
2015-09-03 03:00:00,1.418,1.562
2015-09-03 04:00:00,1.66,1.478
2015-09-03 05:00:00,1.656,1.509
2015-09-03 06:00:00,1.804,1.388
2015-09-03 07:00:00,1.523,1.115
2015-09-03 08:00:00,1.438,1.161
2015-09-03 09:00:00,1.745,1.537
2015-09-03 10:00:00,1.698,1.514
2015-09-03 11:00:00,1.656,1.484
2015-09-03 12:00:00,1.654,1.565
2015-09-03 13:00:00,1.633,1.686
2015-09-03 14:00:00,1.669,1.779
2015-09-03 15:00:00,1.622,2.02
2015-09-03 16:00:00,1.66,1.96
2015-09-03 17:00:00,1.068,1.962
2015-09-03 18:00:00,0.877,1.819
2015-09-03 19:00:00,0.868,1.837
2015-09-03 20:00:00,0.839,1.967
2015-09-03 21:00:00,0.89,2.047
2015-09-03 22:00:00,0.87,1.637
2015-09-03 23:00:00,0.935,1.759
2015-09-04 00:00:00,0.957,1.797
2015-09-04 01:00:00,0.843,1.255
2015-09-04 02:00:00,0.801,1.408
2015-09-04 03:00:00,0.799,1.35
2015-09-04 04:00:00,1.15,1.278
2015-09-04 05:00:00,1.594,1.342
2015-09-04 06:00:00,1.673,1.319
2015-09-04 07:00:00,1.552,1.62
2015-09-04 08:00:00,1.505,1.914
2015-09-04 09:00:00,1.436,2.12
2015-09-04 10:00:00,1.512,2.249
2015-09-04 11:00:00,1.656,2.334
2015-09-04 12:00:00,1.693,2.2
2015-09-04 13:00:00,1.685,2.029
2015-09-04 14:00:00,1.627,2.082
2015-09-04 15:00:00,1.62,2.087
2015-09-04 16:00:00,1.656,2.095
2015-09-04 17:00:00,1.505,1.961
2015-09-04 18:00:00,1.483,2.079
2015-09-04 19:00:00,1.5,2.258
2015-09-04 20:00:00,1.491,2.701
2015-09-04 21:00:00,1.403,2.307
2015-09-04 22:00:00,1.518,2.17
2015-09-04 23:00:00,1.163,2.019
2015-09-05 00:00:00,1.592,2.459
2015-09-05 01:00:00,1.782,2.634
2015-09-05 02:00:00,2.149,2.488
2015-09-05 03:00:00,2.133,2.491
2015-09-05 04:00:00,1.847,2.259
2015-09-05 05:00:00,1.787,2.077
2015-09-05 06:00:00,1.696,2.082
2015-09-05 07:00:00,1.633,2.005
2015-09-05 08:00:00,1.629,2.009
2015-09-05 09:00:00,1.452,1.872
2015-09-05 10:00:00,1.481,1.996
2015-09-05 11:00:00,1.365,1.742
2015-09-05 12:00:00,1.503,1.892
2015-09-05 13:00:00,1.613,1.837
2015-09-05 14:00:00,1.52,2.022
2015-09-05 15:00:00,1.764,2.192
2015-09-05 16:00:00,2.308,2.639
2015-09-05 17:00:00,2.282,2.658
2015-09-05 18:00:00,1.813,2.674
2015-09-05 19:00:00,1.214,2.896
2015-09-05 20:00:00,1.061,3.029
2015-09-05 21:00:00,1.037,2.731
2015-09-05 22:00:00,0.937,3.005
2015-09-05 23:00:00,0.965,2.601
2015-09-06 00:00:00,0.923,2.32
2015-09-06 01:00:00,1.119,2.089
2015-09-06 02:00:00,0.988,2.45
2015-09-06 03:00:00,1.208,2.224
2015-09-06 04:00:00,1.631,2.436
2015-09-06 05:00:00,2.168,2.18
2015-09-06 06:00:00,1.813,1.916
2015-09-06 07:00:00,1.862,1.48
2015-09-06 08:00:00,1.884,1.315
2015-09-06 09:00:00,1.782,1.995
2015-09-06 10:00:00,1.809,1.941
2015-09-06 11:00:00,1.878,1.873
2015-09-06 12:00:00,1.929,2.009
2015-09-06 13:00:00,1.867,2.131
2015-09-06 14:00:00,1.969,2.397
2015-09-06 15:00:00,1.916,2.491
2015-09-06 16:00:00,2.202,2.635
2015-09-06 17:00:00,2.088,2.696
2015-09-06 18:00:00,1.587,2.96
2015-09-06 19:00:00,1.554,2.443
2015-09-06 20:00:00,1.396,2.586
2015-09-06 21:00:00,0.985,2.676
2015-09-06 22:00:00,1.014,2.816
2015-09-06 23:00:00,1.11,3.019
2015-09-07 00:00:00,0.954,2.92
2015-09-07 01:00:00,1.019,2.824
2015-09-07 02:00:00,1.183,2.938
2015-09-07 03:00:00,1.46,2.799
2015-09-07 04:00:00,1.871,2.753
2015-09-07 05:00:00,2.286,2.896
2015-09-07 06:00:00,2.24,2.303
2015-09-07 07:00:00,2.115,2.006
2015-09-07 08:00:00,2.009,1.944
2015-09-07 09:00:00,1.907,2.218
2015-09-07 10:00:00,1.964,2.288
2015-09-07 11:00:00,1.922,2.027
2015-09-07 12:00:00,2.038,2.319
2015-09-07 13:00:00,1.989,2.642
2015-09-07 14:00:00,2.026,2.631
2015-09-07 15:00:00,2.033,2.712
2015-09-07 16:00:00,2.011,3.094
2015-09-07 17:00:00,2.16,3.233
2015-09-07 18:00:00,2.189,3.124
2015-09-07 19:00:00,1.41,2.834
2015-09-07 20:00:00,1.456,2.924
2015-09-07 21:00:00,1.37,2.957
2015-09-07 22:00:00,1.141,2.576
2015-09-07 23:00:00,1.312,2.794
2015-09-08 00:00:00,1.489,3.108
2015-09-08 01:00:00,1.32,3.293
2015-09-08 02:00:00,1.287,3.115
2015-09-08 03:00:00,1.176,3.15
2015-09-08 04:00:00,1.418,3.019
2015-09-08 05:00:00,2.064,2.692
2015-09-08 06:00:00,2.006,2.193
2015-09-08 07:00:00,1.822,2.071
2015-09-08 08:00:00,1.805,1.928
2015-09-08 09:00:00,1.796,1.886
2015-09-08 10:00:00,1.725,1.848
2015-09-08 11:00:00,1.702,1.95
2015-09-08 12:00:00,1.705,2.039
2015-09-08 13:00:00,1.651,2.018
2015-09-08 14:00:00,1.691,2.183
2015-09-08 15:00:00,1.847,2.071
2015-09-08 16:00:00,1.849,2.227
2015-09-08 17:00:00,1.944,1.928
2015-09-08 18:00:00,1.66,2.883
2015-09-08 19:00:00,1.341,2.512
2015-09-08 20:00:00,1.269,2.538
2015-09-08 21:00:00,1.128,2.394
2015-09-08 22:00:00,1.045,2.532
2015-09-08 23:00:00,1.543,2.415
2015-09-09 00:00:00,1.32,2.707
2015-09-09 01:00:00,1.387,2.795
2015-09-09 02:00:00,1.997,2.512
2015-09-09 03:00:00,1.973,2.257
2015-09-09 04:00:00,2.042,2.422
2015-09-09 05:00:00,2.077,2.377
2015-09-09 06:00:00,2.031,1.92
2015-09-09 07:00:00,1.995,1.645
2015-09-09 08:00:00,1.824,1.7
2015-09-09 09:00:00,1.767,1.623
2015-09-09 10:00:00,1.787,1.845
2015-09-09 11:00:00,1.616,1.855
2015-09-09 12:00:00,1.634,1.918
2015-09-09 13:00:00,1.62,2.012
2015-09-09 14:00:00,1.631,2.041
2015-09-09 15:00:00,1.774,2.157
2015-09-09 16:00:00,1.76,2.278
2015-09-09 17:00:00,1.798,2.241
2015-09-09 18:00:00,1.78,2.352
2015-09-09 19:00:00,1.205,2.413
2015-09-09 20:00:00,1.005,2.279
2015-09-09 21:00:00,0.981,2.291
2015-09-09 22:00:00,1.072,2.298
2015-09-09 23:00:00,1.216,2.351
2015-09-10 00:00:00,1.336,2.37
2015-09-10 01:00:00,1.463,2.404
2015-09-10 02:00:00,1.618,2.381
2015-09-10 03:00:00,1.902,2.507
2015-09-10 04:00:00,1.942,2.533
2015-09-10 05:00:00,2.017,2.258
2015-09-10 06:00:00,1.798,2.354
2015-09-10 07:00:00,1.78,2.17
2015-09-10 08:00:00,1.665,2.114
2015-09-10 09:00:00,1.727,2.234
2015-09-10 10:00:00,1.754,2.148
2015-09-10 11:00:00,1.76,2.187
2015-09-10 12:00:00,1.742,2.279
2015-09-10 13:00:00,1.867,2.32
2015-09-10 14:00:00,1.798,2.322
2015-09-10 15:00:00,1.911,2.367
2015-09-10 16:00:00,1.998,2.378
2015-09-10 17:00:00,2.027,2.504
2015-09-10 18:00:00,1.178,2.599
2015-09-10 19:00:00,1.136,2.558
2015-09-10 20:00:00,0.999,2.601
2015-09-10 21:00:00,1.096,2.641
2015-09-10 22:00:00,1.176,2.681
2015-09-10 23:00:00,1.077,2.921
2015-09-11 00:00:00,1.103,2.849
2015-09-11 01:00:00,1.145,2.984
2015-09-11 02:00:00,1.32,2.769
2015-09-11 03:00:00,1.631,2.665
2015-09-11 04:00:00,2.231,2.551
2015-09-11 05:00:00,2.118,2.597
2015-09-11 06:00:00,2.271,2.68
2015-09-11 07:00:00,2.246,2.728
2015-09-11 08:00:00,2.341,2.938
2015-09-11 09:00:00,2.35,2.852
2015-09-11 10:00:00,2.137,2.805
2015-09-11 11:00:00,2.137,2.696
2015-09-11 12:00:00,2.184,2.72
2015-09-11 13:00:00,2.293,2.867
2015-09-11 14:00:00,2.197,2.907
2015-09-11 15:00:00,2.426,3.016
2015-09-11 16:00:00,2.579,3.203
2015-09-11 17:00:00,2.586,3.215
2015-09-11 18:00:00,2.368,3.204
2015-09-11 19:00:00,1.647,3.155
2015-09-11 20:00:00,1.392,3.078
2015-09-11 21:00:00,1.187,3.014
2015-09-11 22:00:00,1.207,3.106
2015-09-11 23:00:00,1.219,3.189
2015-09-12 00:00:00,1.702,3.403
2015-09-12 01:00:00,2.168,3.637
2015-09-12 02:00:00,2.615,3.607
2015-09-12 03:00:00,2.737,3.524
2015-09-12 04:00:00,2.894,3.483
2015-09-12 05:00:00,2.879,3.536
2015-09-12 06:00:00,2.657,3.44
2015-09-12 07:00:00,2.677,3.444
2015-09-12 08:00:00,2.543,3.266
2015-09-12 09:00:00,2.475,3.33
2015-09-12 10:00:00,2.532,3.333
2015-09-12 11:00:00,2.477,3.233
2015-09-12 12:00:00,2.559,3.25
2015-09-12 13:00:00,2.524,3.218
2015-09-12 14:00:00,2.481,3.306
2015-09-12 15:00:00,2.617,3.51
2015-09-12 16:00:00,2.725,3.45
2015-09-12 17:00:00,2.69,3.791
2015-09-12 18:00:00,2.262,3.534
2015-09-12 19:00:00,1.722,3.494
2015-09-12 20:00:00,1.74,3.487
2015-09-12 21:00:00,1.425,3.628
2015-09-12 22:00:00,1.4,3.868
2015-09-12 23:00:00,1.358,3.738
2015-09-13 00:00:00,1.374,4.033
2015-09-13 01:00:00,1.605,3.922
2015-09-13 02:00:00,1.547,3.741
2015-09-13 03:00:00,2.213,3.925
2015-09-13 04:00:00,3.318,3.482
2015-09-13 05:00:00,2.907,3.672
2015-09-13 06:00:00,2.819,3.482
2015-09-13 07:00:00,2.652,3.124
2015-09-13 08:00:00,2.462,2.945
2015-09-13 09:00:00,2.359,2.816
2015-09-13 10:00:00,2.373,3.219
2015-09-13 11:00:00,2.359,3.183
2015-09-13 12:00:00,2.452,2.977
2015-09-13 13:00:00,2.57,3.048
2015-09-13 14:00:00,2.297,3.184
2015-09-13 15:00:00,2.473,3.365
2015-09-13 16:00:00,2.857,3.478
2015-09-13 17:00:00,2.595,3.595
2015-09-13 18:00:00,2.018,3.738
2015-09-13 19:00:00,1.751,3.469
2015-09-13 20:00:00,1.254,3.845
2015-09-13 21:00:00,1.216,3.922
2015-09-13 22:00:00,1.252,3.621
2015-09-13 23:00:00,1.176,4.088
2015-09-14 00:00:00,1.045,3.742
2015-09-14 01:00:00,1.381,3.916
2015-09-14 02:00:00,2.088,3.811
2015-09-14 03:00:00,2.351,3.96
2015-09-14 04:00:00,2.819,3.871
2015-09-14 05:00:00,3.023,3.33
2015-09-14 06:00:00,2.872,3.564
2015-09-14 07:00:00,2.674,3.462
2015-09-14 08:00:00,2.523,3.258
2015-09-14 09:00:00,2.413,3.2
2015-09-14 10:00:00,2.364,3.105
2015-09-14 11:00:00,2.362,3.139
2015-09-14 12:00:00,2.561,3.471
2015-09-14 13:00:00,2.765,3.463
2015-09-14 14:00:00,2.546,3.583
2015-09-14 15:00:00,2.766,3.837
2015-09-14 16:00:00,2.785,3.581
2015-09-14 17:00:00,2.776,3.753
2015-09-14 18:00:00,2.584,3.682
2015-09-14 19:00:00,1.966,3.824
2015-09-14 20:00:00,1.647,3.899
2015-09-14 21:00:00,1.78,3.999
2015-09-14 22:00:00,1.831,3.928
2015-09-14 23:00:00,1.432,3.963
2015-09-15 00:00:00,1.631,4.216
2015-09-15 01:00:00,1.893,3.993
2015-09-15 02:00:00,2.317,4.181
2015-09-15 03:00:00,2.95,4.051
2015-09-15 04:00:00,3.322,4.083
2015-09-15 05:00:00,3.134,4.022
2015-09-15 06:00:00,2.89,3.719
2015-09-15 07:00:00,2.761,3.609
2015-09-15 08:00:00,2.61,3.729
2015-09-15 09:00:00,2.528,3.546
2015-09-15 10:00:00,2.637,3.628
2015-09-15 11:00:00,2.655,3.491
2015-09-15 12:00:00,2.708,3.506
2015-09-15 13:00:00,2.663,3.515
2015-09-15 14:00:00,2.674,3.551
2015-09-15 15:00:00,2.99,3.752
2015-09-15 16:00:00,3.014,4.133
2015-09-15 17:00:00,3.163,4.016
2015-09-15 18:00:00,2.963,4.33
2015-09-15 19:00:00,2.601,4.289
2015-09-15 20:00:00,1.689,4.216
2015-09-15 21:00:00,1.532,4.223
2015-09-15 22:00:00,1.713,4.261
2015-09-15 23:00:00,1.649,4.273
2015-09-16 00:00:00,1.855,4.546
2015-09-16 01:00:00,2.049,4.55
2015-09-16 02:00:00,2.277,4.655
2015-09-16 03:00:00,3.265,4.601
2015-09-16 04:00:00,3.534,4.52
2015-09-16 05:00:00,3.392,4.201
2015-09-16 06:00:00,3.301,4.094
2015-09-16 07:00:00,3.043,3.944
2015-09-16 08:00:00,3.118,3.894
2015-09-16 09:00:00,3.079,4.287
2015-09-16 10:00:00,2.93,4.014
2015-09-16 11:00:00,3.09,4.059
2015-09-16 12:00:00,3.023,4.106
2015-09-16 13:00:00,3.114,4.275
2015-09-16 14:00:00,3.047,4.107
2015-09-16 15:00:00,3.369,4.327
2015-09-16 16:00:00,3.585,4.46
2015-09-16 17:00:00,3.318,4.747
2015-09-16 18:00:00,3.134,4.764
2015-09-16 19:00:00,2.805,4.802
2015-09-16 20:00:00,1.864,4.818
2015-09-16 21:00:00,1.88,5.136
2015-09-16 22:00:00,2.359,4.634
2015-09-16 23:00:00,1.767,4.889
2015-09-17 00:00:00,2.159,4.739
