time,24bspr2a_eco_0001m
2024-05-05 00:00:00,0.0
2024-05-05 01:00:00,-0.008
2024-05-05 02:00:00,-0.001
2024-05-05 03:00:00,0.0
2024-05-05 04:00:00,0.0
2024-05-05 05:00:00,0.0
2024-05-05 06:00:00,0.0
2024-05-05 07:00:00,0.0
2024-05-05 08:00:00,0.0
2024-05-05 09:00:00,0.0
2024-05-05 10:00:00,0.0
2024-05-05 11:00:00,0.0
2024-05-05 12:00:00,0.0
2024-05-05 13:00:00,0.0
2024-05-05 14:00:00,0.0
2024-05-05 15:00:00,0.0
2024-05-05 16:00:00,0.0
2024-05-05 17:00:00,0.0
2024-05-05 18:00:00,-0.008
2024-05-05 19:00:00,-0.001
2024-05-05 20:00:00,-0.008
2024-05-05 21:00:00,-0.001
2024-05-05 22:00:00,0.0
2024-05-05 23:00:00,0.0
2024-05-06 00:00:00,0.0
2024-05-06 01:00:00,0.0
2024-05-06 02:00:00,-0.008
2024-05-06 03:00:00,0.0
2024-05-06 04:00:00,-0.008
2024-05-06 05:00:00,-0.001
2024-05-06 06:00:00,0.0
2024-05-06 07:00:00,0.0
2024-05-06 08:00:00,0.0
2024-05-06 09:00:00,0.0
2024-05-06 10:00:00,0.0
2024-05-06 11:00:00,0.0
2024-05-06 12:00:00,0.0
2024-05-06 13:00:00,0.0
2024-05-06 14:00:00,0.0
2024-05-06 15:00:00,0.0
2024-05-06 16:00:00,0.0
2024-05-06 17:00:00,0.0
2024-05-06 18:00:00,0.0
2024-05-06 19:00:00,0.0
2024-05-06 20:00:00,0.0
2024-05-06 21:00:00,-0.008
2024-05-06 22:00:00,-0.001
2024-05-06 23:00:00,-0.008
2024-05-07 00:00:00,0.0
2024-05-07 01:00:00,-0.008
2024-05-07 02:00:00,-0.001
2024-05-07 03:00:00,0.0
2024-05-07 04:00:00,0.0
2024-05-07 05:00:00,0.0
2024-05-07 06:00:00,0.0
2024-05-07 07:00:00,0.0
2024-05-07 08:00:00,0.0
2024-05-07 09:00:00,0.0
2024-05-07 10:00:00,0.0
2024-05-07 11:00:00,0.0
2024-05-07 12:00:00,0.0
2024-05-07 13:00:00,0.0
2024-05-07 14:00:00,0.0
2024-05-07 15:00:00,0.0
2024-05-07 16:00:00,0.0
2024-05-07 17:00:00,-0.008
2024-05-07 18:00:00,-0.001
2024-05-07 19:00:00,0.0
2024-05-07 20:00:00,0.0
2024-05-07 21:00:00,-0.008
2024-05-07 22:00:00,-0.001
2024-05-07 23:00:00,0.0
2024-05-08 00:00:00,0.0
2024-05-08 01:00:00,0.0
2024-05-08 02:00:00,0.0
2024-05-08 03:00:00,0.0
2024-05-08 04:00:00,0.0
2024-05-08 05:00:00,0.0
2024-05-08 06:00:00,0.0
2024-05-08 07:00:00,0.0
2024-05-08 08:00:00,0.0
2024-05-08 09:00:00,0.0
2024-05-08 10:00:00,0.0
2024-05-08 11:00:00,0.0
2024-05-08 12:00:00,0.0
2024-05-08 13:00:00,0.0
2024-05-08 14:00:00,0.0
2024-05-08 15:00:00,0.0
2024-05-08 16:00:00,0.0
2024-05-08 17:00:00,0.0
2024-05-08 18:00:00,0.0
2024-05-08 19:00:00,0.0
2024-05-08 20:00:00,0.0
2024-05-08 21:00:00,-0.008
2024-05-08 22:00:00,0.0
2024-05-08 23:00:00,0.0
2024-05-09 00:00:00,-0.008
2024-05-09 01:00:00,0.0
2024-05-09 02:00:00,0.0
2024-05-09 03:00:00,-0.008
2024-05-09 04:00:00,-0.033
2024-05-09 05:00:00,-0.034
2024-05-09 06:00:00,-0.026
2024-05-09 07:00:00,-0.025
2024-05-09 08:00:00,-0.034
2024-05-09 09:00:00,-0.034
2024-05-09 10:00:00,-0.034
2024-05-09 11:00:00,-0.025
2024-05-09 12:00:00,-0.026
2024-05-09 13:00:00,-0.025
2024-05-09 14:00:00,-0.025
2024-05-09 15:00:00,-0.042
2024-05-09 16:00:00,-0.019
2024-05-09 17:00:00,0.0
2024-05-09 18:00:00,0.0
2024-05-09 19:00:00,-0.008
2024-05-09 20:00:00,0.0
2024-05-09 21:00:00,-0.016
2024-05-09 22:00:00,-0.017
2024-05-09 23:00:00,-0.033
2024-05-10 00:00:00,-0.042
2024-05-10 01:00:00,-0.034
2024-05-10 02:00:00,-0.018
2024-05-10 03:00:00,-0.041
2024-05-10 04:00:00,-0.034
2024-05-10 05:00:00,-0.033
2024-05-10 06:00:00,-0.051
2024-05-10 07:00:00,-0.043
2024-05-10 08:00:00,-0.001
2024-05-10 09:00:00,0.0
2024-05-10 10:00:00,-0.008
2024-05-10 11:00:00,-0.001
2024-05-10 12:00:00,-0.016
2024-05-10 13:00:00,-0.001
2024-05-10 14:00:00,-0.008
2024-05-10 15:00:00,-0.001
2024-05-10 16:00:00,-0.008
2024-05-10 17:00:00,-0.001
2024-05-10 18:00:00,-0.008
2024-05-10 19:00:00,-0.008
2024-05-10 20:00:00,-0.008
2024-05-10 21:00:00,-0.008
2024-05-10 22:00:00,-0.001
2024-05-10 23:00:00,0.0
2024-05-11 00:00:00,-0.008
2024-05-11 01:00:00,0.0
2024-05-11 02:00:00,-0.008
2024-05-11 03:00:00,-0.001
2024-05-11 04:00:00,0.0
2024-05-11 05:00:00,0.0
2024-05-11 06:00:00,0.0
2024-05-11 07:00:00,0.0
2024-05-11 08:00:00,0.0
2024-05-11 09:00:00,0.0
2024-05-11 10:00:00,0.0
2024-05-11 11:00:00,0.0
2024-05-11 12:00:00,0.0
2024-05-11 13:00:00,0.0
2024-05-11 14:00:00,-0.008
2024-05-11 15:00:00,-0.008
2024-05-11 16:00:00,-0.008
2024-05-11 17:00:00,-0.008
2024-05-11 18:00:00,-0.001
2024-05-11 19:00:00,0.0
2024-05-11 20:00:00,0.0
2024-05-11 21:00:00,0.0
2024-05-11 22:00:00,0.0
2024-05-11 23:00:00,0.0
2024-05-12 00:00:00,0.0
2024-05-12 01:00:00,0.0
2024-05-12 02:00:00,-0.008
2024-05-12 03:00:00,-0.001
2024-05-12 04:00:00,0.0
2024-05-12 05:00:00,0.0
2024-05-12 06:00:00,0.0
2024-05-12 07:00:00,0.0
2024-05-12 08:00:00,0.0
2024-05-12 09:00:00,0.0
2024-05-12 10:00:00,0.0
2024-05-12 11:00:00,0.0
2024-05-12 12:00:00,-0.008
2024-05-12 13:00:00,0.0
2024-05-12 14:00:00,-0.008
2024-05-12 15:00:00,0.0
2024-05-12 16:00:00,0.0
2024-05-12 17:00:00,-0.008
2024-05-12 18:00:00,-0.008
2024-05-12 19:00:00,0.0
2024-05-12 20:00:00,0.0
2024-05-12 21:00:00,0.0
2024-05-12 22:00:00,0.0
2024-05-12 23:00:00,0.0
2024-05-13 00:00:00,-0.008
2024-05-13 01:00:00,0.0
2024-05-13 02:00:00,0.0
2024-05-13 03:00:00,0.0
2024-05-13 04:00:00,0.0
2024-05-13 05:00:00,-0.008
2024-05-13 06:00:00,-0.001
2024-05-13 07:00:00,0.0
2024-05-13 08:00:00,0.0
2024-05-13 09:00:00,0.0
2024-05-13 10:00:00,-0.008
2024-05-13 11:00:00,-0.008
2024-05-13 12:00:00,-0.001
2024-05-13 13:00:00,0.0
2024-05-13 14:00:00,0.0
2024-05-13 15:00:00,0.0
2024-05-13 16:00:00,0.0
2024-05-13 17:00:00,-0.008
2024-05-13 18:00:00,-0.009
2024-05-13 19:00:00,0.0
2024-05-13 20:00:00,0.0
2024-05-13 21:00:00,-0.008
2024-05-13 22:00:00,0.0
2024-05-13 23:00:00,0.0
2024-05-14 00:00:00,0.0
2024-05-14 01:00:00,0.0
2024-05-14 02:00:00,0.0
2024-05-14 03:00:00,0.0
2024-05-14 04:00:00,0.0
2024-05-14 05:00:00,0.0
2024-05-14 06:00:00,0.0
2024-05-14 07:00:00,0.0
2024-05-14 08:00:00,0.0
2024-05-14 09:00:00,0.0
2024-05-14 10:00:00,0.0
2024-05-14 11:00:00,0.0
2024-05-14 12:00:00,0.0
2024-05-14 13:00:00,0.0
2024-05-14 14:00:00,0.0
2024-05-14 15:00:00,0.0
2024-05-14 16:00:00,0.0
2024-05-14 17:00:00,0.0
2024-05-14 18:00:00,-0.008
2024-05-14 19:00:00,-0.008
2024-05-14 20:00:00,-0.001
2024-05-14 21:00:00,-0.008
2024-05-14 22:00:00,-0.001
2024-05-14 23:00:00,0.0
2024-05-15 00:00:00,0.0
2024-05-15 01:00:00,0.0
2024-05-15 02:00:00,0.0
2024-05-15 03:00:00,0.0
2024-05-15 04:00:00,0.0
2024-05-15 05:00:00,0.0
2024-05-15 06:00:00,0.0
2024-05-15 07:00:00,0.0
2024-05-15 08:00:00,0.0
2024-05-15 09:00:00,0.0
2024-05-15 10:00:00,0.0
2024-05-15 11:00:00,0.0
2024-05-15 12:00:00,0.0
2024-05-15 13:00:00,0.0
2024-05-15 14:00:00,0.0
2024-05-15 15:00:00,-0.008
2024-05-15 16:00:00,-0.001
2024-05-15 17:00:00,-0.008
2024-05-15 18:00:00,-0.001
2024-05-15 19:00:00,0.0
2024-05-15 20:00:00,-0.008
2024-05-15 21:00:00,-0.008
2024-05-15 22:00:00,-0.008
2024-05-15 23:00:00,-0.001
2024-05-16 00:00:00,0.0
2024-05-16 01:00:00,0.0
2024-05-16 02:00:00,-0.008
2024-05-16 03:00:00,-0.001
2024-05-16 04:00:00,0.0
2024-05-16 05:00:00,0.0
2024-05-16 06:00:00,0.0
2024-05-16 07:00:00,0.0
2024-05-16 08:00:00,0.0
2024-05-16 09:00:00,0.0
2024-05-16 10:00:00,0.0
2024-05-16 11:00:00,0.0
2024-05-16 12:00:00,0.0
2024-05-16 13:00:00,0.0
2024-05-16 14:00:00,0.0
2024-05-16 15:00:00,0.0
2024-05-16 16:00:00,0.0
2024-05-16 17:00:00,0.0
2024-05-16 18:00:00,0.0
2024-05-16 19:00:00,-0.008
2024-05-16 20:00:00,0.0
2024-05-16 21:00:00,0.0
2024-05-16 22:00:00,0.0
2024-05-16 23:00:00,0.0
2024-05-17 00:00:00,0.0
2024-05-17 01:00:00,0.0
2024-05-17 02:00:00,0.0
2024-05-17 03:00:00,1.688
2024-05-17 04:00:00,3.707
2024-05-17 05:00:00,4.125
2024-05-17 06:00:00,7.03
2024-05-17 07:00:00,7.563
2024-05-17 08:00:00,7.078
2024-05-17 09:00:00,7.894
2024-05-17 10:00:00,6.702
2024-05-17 11:00:00,6.059
2024-05-17 12:00:00,5.353
2024-05-17 13:00:00,4.775
2024-05-17 14:00:00,4.751
2024-05-17 15:00:00,4.906
2024-05-17 16:00:00,4.777
2024-05-17 17:00:00,4.878
2024-05-17 18:00:00,3.375
2024-05-17 19:00:00,2.982
2024-05-17 20:00:00,3.084
2024-05-17 21:00:00,2.448
2024-05-17 22:00:00,4.34
2024-05-17 23:00:00,2.711
2024-05-18 00:00:00,2.587
2024-05-18 01:00:00,3.46
2024-05-18 02:00:00,4.251
2024-05-18 03:00:00,5.304
2024-05-18 04:00:00,5.578
2024-05-18 05:00:00,5.554
2024-05-18 06:00:00,5.572
2024-05-18 07:00:00,6.718
2024-05-18 08:00:00,7.251
2024-05-18 09:00:00,7.095
2024-05-18 10:00:00,6.843
2024-05-18 11:00:00,6.234
2024-05-18 12:00:00,5.231
2024-05-18 13:00:00,4.575
2024-05-18 14:00:00,4.504
2024-05-18 15:00:00,4.395
2024-05-18 16:00:00,4.512
2024-05-18 17:00:00,3.578
2024-05-18 18:00:00,1.986
2024-05-18 19:00:00,1.604
2024-05-18 20:00:00,1.444
2024-05-18 21:00:00,2.491
2024-05-18 22:00:00,3.048
2024-05-18 23:00:00,4.317
2024-05-19 00:00:00,3.933
2024-05-19 01:00:00,4.184
2024-05-19 02:00:00,2.988
2024-05-19 03:00:00,3.545
2024-05-19 04:00:00,5.329
2024-05-19 05:00:00,5.665
2024-05-19 06:00:00,6.502
2024-05-19 07:00:00,6.427
2024-05-19 08:00:00,6.699
2024-05-19 09:00:00,6.929
2024-05-19 10:00:00,7.097
2024-05-19 11:00:00,7.454
2024-05-19 12:00:00,6.71
2024-05-19 13:00:00,6.389
2024-05-19 14:00:00,5.726
2024-05-19 15:00:00,5.044
2024-05-19 16:00:00,5.494
2024-05-19 17:00:00,4.792
2024-05-19 18:00:00,3.846
2024-05-19 19:00:00,2.663
2024-05-19 20:00:00,2.634
2024-05-19 21:00:00,2.068
2024-05-19 22:00:00,1.839
2024-05-19 23:00:00,1.857
2024-05-20 00:00:00,1.809
2024-05-20 01:00:00,1.931
2024-05-20 02:00:00,1.889
2024-05-20 03:00:00,2.317
2024-05-20 04:00:00,4.396
2024-05-20 05:00:00,7.884
2024-05-20 06:00:00,8.741
2024-05-20 07:00:00,8.261
2024-05-20 08:00:00,8.577
2024-05-20 09:00:00,8.282
2024-05-20 10:00:00,7.534
2024-05-20 11:00:00,7.279
2024-05-20 12:00:00,7.192
2024-05-20 13:00:00,7.067
2024-05-20 14:00:00,6.772
2024-05-20 15:00:00,6.092
2024-05-20 16:00:00,6.126
2024-05-20 17:00:00,6.623
2024-05-20 18:00:00,5.92
2024-05-20 19:00:00,4.618
2024-05-20 20:00:00,3.265
2024-05-20 21:00:00,5.516
2024-05-20 22:00:00,6.089
2024-05-20 23:00:00,7.095
2024-05-21 00:00:00,7.767
2024-05-21 01:00:00,8.599
2024-05-21 02:00:00,7.581
2024-05-21 03:00:00,7.868
2024-05-21 04:00:00,7.237
2024-05-21 05:00:00,6.383
2024-05-21 06:00:00,6.207
2024-05-21 07:00:00,5.816
2024-05-21 08:00:00,5.805
2024-05-21 09:00:00,5.851
2024-05-21 10:00:00,5.834
2024-05-21 11:00:00,5.851
2024-05-21 12:00:00,5.788
2024-05-21 13:00:00,5.727
2024-05-21 14:00:00,5.9
2024-05-21 15:00:00,5.782
2024-05-21 16:00:00,5.854
2024-05-21 17:00:00,5.601
2024-05-21 18:00:00,6.068
2024-05-21 19:00:00,5.661
2024-05-21 20:00:00,3.863
2024-05-21 21:00:00,4.111
2024-05-21 22:00:00,2.447
2024-05-21 23:00:00,3.213
2024-05-22 00:00:00,4.384
2024-05-22 01:00:00,4.74
2024-05-22 02:00:00,3.772
2024-05-22 03:00:00,4.382
2024-05-22 04:00:00,5.65
2024-05-22 05:00:00,6.003
2024-05-22 06:00:00,5.381
2024-05-22 07:00:00,5.118
2024-05-22 08:00:00,4.987
2024-05-22 09:00:00,4.797
2024-05-22 10:00:00,4.76
2024-05-22 11:00:00,4.718
2024-05-22 12:00:00,4.595
2024-05-22 13:00:00,4.524
2024-05-22 14:00:00,4.919
2024-05-22 15:00:00,5.06
2024-05-22 16:00:00,4.831
2024-05-22 17:00:00,4.763
2024-05-22 18:00:00,4.467
2024-05-22 19:00:00,3.637
2024-05-22 20:00:00,2.905
2024-05-22 21:00:00,3.079
2024-05-22 22:00:00,2.865
2024-05-22 23:00:00,2.255
2024-05-23 00:00:00,2.909
2024-05-23 01:00:00,4.129
2024-05-23 02:00:00,4.251
2024-05-23 03:00:00,4.199
2024-05-23 04:00:00,3.632
2024-05-23 05:00:00,6.035
2024-05-23 06:00:00,5.754
2024-05-23 07:00:00,5.268
2024-05-23 08:00:00,10.663
2024-05-23 09:00:00,4.926
2024-05-23 10:00:00,4.866
2024-05-23 11:00:00,4.849
2024-05-23 12:00:00,5.057
2024-05-23 13:00:00,4.896
2024-05-23 14:00:00,4.89
2024-05-23 15:00:00,4.847
2024-05-23 16:00:00,5.13
2024-05-23 17:00:00,5.175
2024-05-23 18:00:00,5.046
2024-05-23 19:00:00,4.605
2024-05-23 20:00:00,2.885
2024-05-23 21:00:00,2.967
2024-05-23 22:00:00,2.892
2024-05-23 23:00:00,3.572
2024-05-24 00:00:00,3.112
2024-05-24 01:00:00,3.219
2024-05-24 02:00:00,6.033
2024-05-24 03:00:00,5.673
2024-05-24 04:00:00,6.197
2024-05-24 05:00:00,6.562
2024-05-24 06:00:00,6.229
2024-05-24 07:00:00,5.577
2024-05-24 08:00:00,5.06
2024-05-24 09:00:00,4.482
2024-05-24 10:00:00,4.779
2024-05-24 11:00:00,4.714
2024-05-24 12:00:00,4.637
2024-05-24 13:00:00,4.699
2024-05-24 14:00:00,4.795
2024-05-24 15:00:00,4.743
2024-05-24 16:00:00,4.81
2024-05-24 17:00:00,4.899
2024-05-24 18:00:00,4.698
2024-05-24 19:00:00,4.634
2024-05-24 20:00:00,3.472
2024-05-24 21:00:00,3.396
2024-05-24 22:00:00,3.317
2024-05-24 23:00:00,2.908
2024-05-25 00:00:00,3.048
2024-05-25 01:00:00,3.553
2024-05-25 02:00:00,4.641
2024-05-25 03:00:00,5.362
2024-05-25 04:00:00,4.787
2024-05-25 05:00:00,6.162
2024-05-25 06:00:00,6.318
2024-05-25 07:00:00,5.596
2024-05-25 08:00:00,5.005
2024-05-25 09:00:00,4.588
2024-05-25 10:00:00,4.746
2024-05-25 11:00:00,4.624
2024-05-25 12:00:00,4.707
2024-05-25 13:00:00,4.676
2024-05-25 14:00:00,5.071
2024-05-25 15:00:00,5.098
2024-05-25 16:00:00,5.22
2024-05-25 17:00:00,4.673
2024-05-25 18:00:00,3.828
2024-05-25 19:00:00,4.036
2024-05-25 20:00:00,2.044
2024-05-25 21:00:00,2.011
2024-05-25 22:00:00,2.308
2024-05-25 23:00:00,2.379
2024-05-26 00:00:00,3.037
2024-05-26 01:00:00,3.385
2024-05-26 02:00:00,3.544
2024-05-26 03:00:00,4.926
2024-05-26 04:00:00,5.961
2024-05-26 05:00:00,6.77
2024-05-26 06:00:00,6.514
2024-05-26 07:00:00,6.018
2024-05-26 08:00:00,5.611
2024-05-26 09:00:00,5.457
2024-05-26 10:00:00,4.944
2024-05-26 11:00:00,4.755
2024-05-26 12:00:00,4.864
2024-05-26 13:00:00,4.771
2024-05-26 14:00:00,5.204
2024-05-26 15:00:00,5.153
2024-05-26 16:00:00,4.84
2024-05-26 17:00:00,5.0
2024-05-26 18:00:00,4.181
2024-05-26 19:00:00,3.858
2024-05-26 20:00:00,3.53
2024-05-26 21:00:00,2.544
2024-05-26 22:00:00,2.124
2024-05-26 23:00:00,2.213
2024-05-27 00:00:00,2.311
2024-05-27 01:00:00,2.308
2024-05-27 02:00:00,2.458
2024-05-27 03:00:00,3.575
2024-05-27 04:00:00,5.449
2024-05-27 05:00:00,6.009
2024-05-27 06:00:00,6.336
2024-05-27 07:00:00,6.308
2024-05-27 08:00:00,5.907
2024-05-27 09:00:00,5.527
2024-05-27 10:00:00,5.138
2024-05-27 11:00:00,5.112
2024-05-27 12:00:00,4.672
2024-05-27 13:00:00,4.424
2024-05-27 14:00:00,4.509
2024-05-27 15:00:00,5.073
2024-05-27 16:00:00,5.401
2024-05-27 17:00:00,4.556
2024-05-27 18:00:00,3.986
2024-05-27 19:00:00,2.672
2024-05-27 20:00:00,2.779
2024-05-27 21:00:00,1.978
2024-05-27 22:00:00,1.207
2024-05-27 23:00:00,1.125
2024-05-28 00:00:00,0.959
2024-05-28 01:00:00,0.868
2024-05-28 02:00:00,1.413
2024-05-28 03:00:00,2.613
2024-05-28 04:00:00,4.399
2024-05-28 05:00:00,4.782
2024-05-28 06:00:00,5.118
2024-05-28 07:00:00,4.319
2024-05-28 08:00:00,4.449
2024-05-28 09:00:00,5.09
2024-05-28 10:00:00,4.792
2024-05-28 11:00:00,4.546
2024-05-28 12:00:00,4.388
2024-05-28 13:00:00,4.191
2024-05-28 14:00:00,4.262
2024-05-28 15:00:00,4.376
2024-05-28 16:00:00,4.924
2024-05-28 17:00:00,4.436
2024-05-28 18:00:00,2.831
2024-05-28 19:00:00,2.89
2024-05-28 20:00:00,2.325
2024-05-28 21:00:00,1.575
2024-05-28 22:00:00,1.951
2024-05-28 23:00:00,2.54
2024-05-29 00:00:00,2.743
2024-05-29 01:00:00,1.986
2024-05-29 02:00:00,1.937
2024-05-29 03:00:00,1.72
2024-05-29 04:00:00,1.933
2024-05-29 05:00:00,3.707
2024-05-29 06:00:00,5.011
2024-05-29 07:00:00,6.274
2024-05-29 08:00:00,5.846
2024-05-29 09:00:00,5.339
2024-05-29 10:00:00,4.406
2024-05-29 11:00:00,3.583
2024-05-29 12:00:00,3.343
2024-05-29 13:00:00,3.357
2024-05-29 14:00:00,3.106
2024-05-29 15:00:00,3.446
2024-05-29 16:00:00,3.23
2024-05-29 17:00:00,1.871
2024-05-29 18:00:00,1.822
2024-05-29 19:00:00,0.966
2024-05-29 20:00:00,0.607
2024-05-29 21:00:00,0.351
2024-05-29 22:00:00,0.331
2024-05-29 23:00:00,0.344
2024-05-30 00:00:00,0.364
2024-05-30 01:00:00,0.49
2024-05-30 02:00:00,0.681
2024-05-30 03:00:00,1.03
2024-05-30 04:00:00,1.235
2024-05-30 05:00:00,2.46
2024-05-30 06:00:00,3.75
2024-05-30 07:00:00,3.952
2024-05-30 08:00:00,4.039
2024-05-30 09:00:00,4.338
2024-05-30 10:00:00,4.547
2024-05-30 11:00:00,5.758
2024-05-30 12:00:00,4.509
2024-05-30 13:00:00,4.422
2024-05-30 14:00:00,4.676
2024-05-30 15:00:00,5.211
2024-05-30 16:00:00,5.321
2024-05-30 17:00:00,2.587
2024-05-30 18:00:00,1.916
2024-05-30 19:00:00,1.133
2024-05-30 20:00:00,1.295
2024-05-30 21:00:00,1.239
2024-05-30 22:00:00,1.161
2024-05-30 23:00:00,1.322
2024-05-31 00:00:00,1.384
2024-05-31 01:00:00,1.222
2024-05-31 02:00:00,1.261
2024-05-31 03:00:00,1.118
2024-05-31 04:00:00,1.307
2024-05-31 05:00:00,2.953
2024-05-31 06:00:00,4.431
2024-05-31 07:00:00,5.001
2024-05-31 08:00:00,4.525
2024-05-31 09:00:00,4.823
2024-05-31 10:00:00,4.59
2024-05-31 11:00:00,4.552
2024-05-31 12:00:00,5.138
2024-05-31 13:00:00,5.058
2024-05-31 14:00:00,4.987
2024-05-31 15:00:00,5.43
2024-05-31 16:00:00,5.613
2024-05-31 17:00:00,3.065
2024-05-31 18:00:00,3.028
2024-05-31 19:00:00,2.034
2024-05-31 20:00:00,1.18
2024-05-31 21:00:00,1.473
2024-05-31 22:00:00,1.31
2024-05-31 23:00:00,2.035
2024-06-01 00:00:00,2.295
2024-06-01 01:00:00,4.302
2024-06-01 02:00:00,3.908
2024-06-01 03:00:00,4.153
2024-06-01 04:00:00,6.678
2024-06-01 05:00:00,6.989
2024-06-01 06:00:00,6.681
2024-06-01 07:00:00,5.726
2024-06-01 08:00:00,5.523
2024-06-01 09:00:00,6.278
2024-06-01 10:00:00,6.502
2024-06-01 11:00:00,6.254
2024-06-01 12:00:00,6.394
2024-06-01 13:00:00,6.487
2024-06-01 14:00:00,7.157
2024-06-01 15:00:00,6.82
2024-06-01 16:00:00,4.236
2024-06-01 17:00:00,2.661
2024-06-01 18:00:00,2.421
2024-06-01 19:00:00,1.67
2024-06-01 20:00:00,1.206
2024-06-01 21:00:00,1.108
2024-06-01 22:00:00,1.23
2024-06-01 23:00:00,1.178
2024-06-02 00:00:00,1.435
2024-06-02 01:00:00,1.54
2024-06-02 02:00:00,1.873
2024-06-02 03:00:00,2.077
2024-06-02 04:00:00,2.39
2024-06-02 05:00:00,5.556
2024-06-02 06:00:00,6.241
2024-06-02 07:00:00,5.713
2024-06-02 08:00:00,5.333
2024-06-02 09:00:00,5.162
2024-06-02 10:00:00,5.174
2024-06-02 11:00:00,5.284
2024-06-02 12:00:00,5.313
2024-06-02 13:00:00,5.302
2024-06-02 14:00:00,5.403
2024-06-02 15:00:00,5.567
2024-06-02 16:00:00,5.558
2024-06-02 17:00:00,3.228
2024-06-02 18:00:00,0.941
2024-06-02 19:00:00,1.397
2024-06-02 20:00:00,0.988
2024-06-02 21:00:00,0.66
2024-06-02 22:00:00,0.489
2024-06-02 23:00:00,0.406
2024-06-03 00:00:00,0.412
2024-06-03 01:00:00,0.472
2024-06-03 02:00:00,0.763
2024-06-03 03:00:00,0.88
2024-06-03 04:00:00,1.93
2024-06-03 05:00:00,3.459
2024-06-03 06:00:00,3.136
2024-06-03 07:00:00,3.011
2024-06-03 08:00:00,2.79
2024-06-03 09:00:00,2.577
2024-06-03 10:00:00,2.51
2024-06-03 11:00:00,2.763
2024-06-03 12:00:00,2.65
2024-06-03 13:00:00,2.418
2024-06-03 14:00:00,2.387
2024-06-03 15:00:00,1.744
2024-06-03 16:00:00,1.274
2024-06-03 17:00:00,0.661
2024-06-03 18:00:00,0.713
2024-06-03 19:00:00,0.58
2024-06-03 20:00:00,0.541
2024-06-03 21:00:00,0.562
2024-06-03 22:00:00,0.505
2024-06-03 23:00:00,0.492
2024-06-04 00:00:00,0.508
2024-06-04 01:00:00,0.635
2024-06-04 02:00:00,0.821
2024-06-04 03:00:00,1.327
2024-06-04 04:00:00,1.662
2024-06-04 05:00:00,2.614
2024-06-04 06:00:00,2.562
2024-06-04 07:00:00,1.867
2024-06-04 08:00:00,1.45
2024-06-04 09:00:00,1.196
2024-06-04 10:00:00,1.224
2024-06-04 11:00:00,1.444
2024-06-04 12:00:00,1.923
2024-06-04 13:00:00,2.119
2024-06-04 14:00:00,2.478
2024-06-04 15:00:00,2.608
2024-06-04 16:00:00,2.303
2024-06-04 17:00:00,1.562
2024-06-04 18:00:00,0.842
2024-06-04 19:00:00,0.821
2024-06-04 20:00:00,0.554
2024-06-04 21:00:00,0.661
2024-06-04 22:00:00,0.555
2024-06-04 23:00:00,0.566
2024-06-05 00:00:00,0.519
2024-06-05 01:00:00,0.561
2024-06-05 02:00:00,0.512
2024-06-05 03:00:00,0.699
2024-06-05 04:00:00,0.766
2024-06-05 05:00:00,1.041
2024-06-05 06:00:00,1.66
2024-06-05 07:00:00,1.663
2024-06-05 08:00:00,1.465
2024-06-05 09:00:00,1.542
2024-06-05 10:00:00,1.418
2024-06-05 11:00:00,1.412
2024-06-05 12:00:00,1.488
2024-06-05 13:00:00,1.311
2024-06-05 14:00:00,1.465
2024-06-05 15:00:00,1.649
2024-06-05 16:00:00,1.927
2024-06-05 17:00:00,1.735
2024-06-05 18:00:00,0.856
2024-06-05 19:00:00,0.45
2024-06-05 20:00:00,0.307
2024-06-05 21:00:00,0.297
2024-06-05 22:00:00,0.237
2024-06-05 23:00:00,0.197
2024-06-06 00:00:00,0.154
2024-06-06 01:00:00,0.136
2024-06-06 02:00:00,0.24
2024-06-06 03:00:00,0.518
2024-06-06 04:00:00,0.686
2024-06-06 05:00:00,0.734
2024-06-06 06:00:00,1.025
2024-06-06 07:00:00,0.962
2024-06-06 08:00:00,0.87
2024-06-06 09:00:00,0.948
2024-06-06 10:00:00,0.89
2024-06-06 11:00:00,0.91
2024-06-06 12:00:00,0.958
2024-06-06 13:00:00,0.977
2024-06-06 14:00:00,1.015
2024-06-06 15:00:00,1.118
2024-06-06 16:00:00,1.528
2024-06-06 17:00:00,1.756
2024-06-06 18:00:00,1.34
2024-06-06 19:00:00,0.806
2024-06-06 20:00:00,0.564
2024-06-06 21:00:00,0.399
2024-06-06 22:00:00,0.34
2024-06-06 23:00:00,0.321
2024-06-07 00:00:00,0.232
2024-06-07 01:00:00,0.163
2024-06-07 02:00:00,0.143
2024-06-07 03:00:00,0.16
2024-06-07 04:00:00,0.218
2024-06-07 05:00:00,0.294
2024-06-07 06:00:00,0.78
2024-06-07 07:00:00,1.393
2024-06-07 08:00:00,1.296
2024-06-07 09:00:00,1.097
2024-06-07 10:00:00,1.159
2024-06-07 11:00:00,1.025
2024-06-07 12:00:00,1.067
2024-06-07 13:00:00,1.088
2024-06-07 14:00:00,1.16
2024-06-07 15:00:00,1.267
2024-06-07 16:00:00,1.554
2024-06-07 17:00:00,1.762
2024-06-07 18:00:00,1.407
2024-06-07 19:00:00,1.003
2024-06-07 20:00:00,0.843
2024-06-07 21:00:00,0.641
2024-06-07 22:00:00,0.36
2024-06-07 23:00:00,0.298
2024-06-08 00:00:00,0.246
2024-06-08 01:00:00,0.229
2024-06-08 02:00:00,0.268
2024-06-08 03:00:00,0.377
2024-06-08 04:00:00,0.57
2024-06-08 05:00:00,0.725
2024-06-08 06:00:00,1.216
2024-06-08 07:00:00,1.497
2024-06-08 08:00:00,1.399
2024-06-08 09:00:00,1.585
2024-06-08 10:00:00,1.759
2024-06-08 11:00:00,1.852
2024-06-08 12:00:00,1.572
2024-06-08 13:00:00,1.476
2024-06-08 14:00:00,1.549
2024-06-08 15:00:00,1.861
2024-06-08 16:00:00,2.08
2024-06-08 17:00:00,1.558
2024-06-08 18:00:00,1.02
2024-06-08 19:00:00,0.813
2024-06-08 20:00:00,0.675
2024-06-08 21:00:00,0.55
2024-06-08 22:00:00,0.424
2024-06-08 23:00:00,0.482
2024-06-09 00:00:00,0.31
2024-06-09 01:00:00,0.278
2024-06-09 02:00:00,0.319
2024-06-09 03:00:00,0.524
2024-06-09 04:00:00,1.104
2024-06-09 05:00:00,1.33
2024-06-09 06:00:00,1.218
2024-06-09 07:00:00,1.255
2024-06-09 08:00:00,1.38
2024-06-09 09:00:00,1.456
2024-06-09 10:00:00,1.722
2024-06-09 11:00:00,1.542
2024-06-09 12:00:00,1.455
2024-06-09 13:00:00,1.226
2024-06-09 14:00:00,1.247
2024-06-09 15:00:00,1.677
2024-06-09 16:00:00,1.333
2024-06-09 17:00:00,1.311
2024-06-09 18:00:00,0.985
2024-06-09 19:00:00,0.611
2024-06-09 20:00:00,0.438
2024-06-09 21:00:00,0.408
2024-06-09 22:00:00,0.266
2024-06-09 23:00:00,0.263
2024-06-10 00:00:00,0.221
2024-06-10 01:00:00,0.202
2024-06-10 02:00:00,0.423
2024-06-10 03:00:00,0.574
2024-06-10 04:00:00,0.694
2024-06-10 05:00:00,1.016
2024-06-10 06:00:00,1.198
2024-06-10 07:00:00,1.302
2024-06-10 08:00:00,1.146
2024-06-10 09:00:00,1.541
2024-06-10 10:00:00,1.503
2024-06-10 11:00:00,1.489
2024-06-10 12:00:00,1.455
2024-06-10 13:00:00,1.41
2024-06-10 14:00:00,1.447
2024-06-10 15:00:00,1.258
2024-06-10 16:00:00,0.794
2024-06-10 17:00:00,0.829
2024-06-10 18:00:00,0.715
2024-06-10 19:00:00,0.527
2024-06-10 20:00:00,0.428
2024-06-10 21:00:00,0.39
2024-06-10 22:00:00,0.282
2024-06-10 23:00:00,0.296
2024-06-11 00:00:00,0.238
2024-06-11 01:00:00,0.156
2024-06-11 02:00:00,0.135
2024-06-11 03:00:00,0.151
2024-06-11 04:00:00,0.168
2024-06-11 05:00:00,0.29
2024-06-11 06:00:00,0.745
2024-06-11 07:00:00,0.87
2024-06-11 08:00:00,0.888
2024-06-11 09:00:00,0.96
2024-06-11 10:00:00,0.938
2024-06-11 11:00:00,1.038
2024-06-11 12:00:00,1.131
2024-06-11 13:00:00,1.138
2024-06-11 14:00:00,1.186
2024-06-11 15:00:00,1.117
2024-06-11 16:00:00,0.53
2024-06-11 17:00:00,0.301
2024-06-11 18:00:00,0.303
2024-06-11 19:00:00,0.21
2024-06-11 20:00:00,0.17
2024-06-11 21:00:00,0.161
2024-06-11 22:00:00,0.177
2024-06-11 23:00:00,0.229
2024-06-12 00:00:00,0.153
2024-06-12 01:00:00,0.184
2024-06-12 02:00:00,0.17
2024-06-12 03:00:00,0.242
2024-06-12 04:00:00,0.4
2024-06-12 05:00:00,0.653
2024-06-12 06:00:00,0.756
2024-06-12 07:00:00,0.603
2024-06-12 08:00:00,0.565
2024-06-12 09:00:00,0.65
2024-06-12 10:00:00,0.593
2024-06-12 11:00:00,0.775
2024-06-12 12:00:00,0.779
2024-06-12 13:00:00,0.768
2024-06-12 14:00:00,0.723
2024-06-12 15:00:00,0.798
2024-06-12 16:00:00,0.813
2024-06-12 17:00:00,0.644
2024-06-12 18:00:00,0.43
2024-06-12 19:00:00,0.354
2024-06-12 20:00:00,0.266
2024-06-12 21:00:00,0.195
2024-06-12 22:00:00,0.195
2024-06-12 23:00:00,0.163
2024-06-13 00:00:00,0.111
2024-06-13 01:00:00,0.084
2024-06-13 02:00:00,0.134
2024-06-13 03:00:00,0.159
2024-06-13 04:00:00,0.161
2024-06-13 05:00:00,0.424
2024-06-13 06:00:00,0.455
2024-06-13 07:00:00,0.372
2024-06-13 08:00:00,0.425
2024-06-13 09:00:00,0.377
2024-06-13 10:00:00,0.38
2024-06-13 11:00:00,0.391
2024-06-13 12:00:00,0.448
2024-06-13 13:00:00,0.464
2024-06-13 14:00:00,0.493
2024-06-13 15:00:00,0.565
2024-06-13 16:00:00,0.401
2024-06-13 17:00:00,0.22
2024-06-13 18:00:00,0.172
2024-06-13 19:00:00,0.104
2024-06-13 20:00:00,0.076
2024-06-13 21:00:00,0.06
2024-06-13 22:00:00,0.099
2024-06-13 23:00:00,0.111
2024-06-14 00:00:00,0.077
2024-06-14 01:00:00,0.092
2024-06-14 02:00:00,0.06
2024-06-14 03:00:00,0.116
2024-06-14 04:00:00,0.223
2024-06-14 05:00:00,0.427
2024-06-14 06:00:00,0.406
2024-06-14 07:00:00,0.443
2024-06-14 08:00:00,0.346
2024-06-14 09:00:00,0.433
2024-06-14 10:00:00,0.432
2024-06-14 11:00:00,0.524
2024-06-14 12:00:00,0.399
2024-06-14 13:00:00,0.424
2024-06-14 14:00:00,0.42
2024-06-14 15:00:00,0.506
2024-06-14 16:00:00,0.429
2024-06-14 17:00:00,0.127
2024-06-14 18:00:00,0.051
2024-06-14 19:00:00,0.035
2024-06-14 20:00:00,0.025
2024-06-14 21:00:00,0.016
2024-06-14 22:00:00,0.01
2024-06-14 23:00:00,0.008
2024-06-15 00:00:00,0.0
2024-06-15 01:00:00,0.0
2024-06-15 02:00:00,0.024
2024-06-15 03:00:00,0.042
2024-06-15 04:00:00,0.067
2024-06-15 05:00:00,0.108
2024-06-15 06:00:00,0.223
2024-06-15 07:00:00,0.41
2024-06-15 08:00:00,0.315
2024-06-15 09:00:00,0.321
2024-06-15 10:00:00,0.346
2024-06-15 11:00:00,0.274
2024-06-15 12:00:00,0.286
2024-06-15 13:00:00,0.37
2024-06-15 14:00:00,0.457
2024-06-15 15:00:00,0.468
2024-06-15 16:00:00,0.343
2024-06-15 17:00:00,0.167
2024-06-15 18:00:00,0.053
2024-06-15 19:00:00,0.075
2024-06-15 20:00:00,0.02
2024-06-15 21:00:00,0.008
2024-06-15 22:00:00,0.0
2024-06-15 23:00:00,0.0
2024-06-16 00:00:00,0.0
2024-06-16 01:00:00,-0.008
2024-06-16 02:00:00,-0.009
2024-06-16 03:00:00,0.023
2024-06-16 04:00:00,-0.007
2024-06-16 05:00:00,0.041
2024-06-16 06:00:00,0.183
2024-06-16 07:00:00,0.286
2024-06-16 08:00:00,0.308
2024-06-16 09:00:00,0.275
2024-06-16 10:00:00,0.276
2024-06-16 11:00:00,0.296
2024-06-16 12:00:00,0.19
2024-06-16 13:00:00,0.259
2024-06-16 14:00:00,0.263
2024-06-16 15:00:00,0.236
2024-06-16 16:00:00,0.143
2024-06-16 17:00:00,0.026
2024-06-16 18:00:00,-0.007
2024-06-16 19:00:00,-0.017
2024-06-16 20:00:00,-0.008
2024-06-16 21:00:00,-0.009
2024-06-16 22:00:00,0.0
2024-06-16 23:00:00,0.0
2024-06-17 00:00:00,-0.008
2024-06-17 01:00:00,0.0
2024-06-17 02:00:00,0.0
2024-06-17 03:00:00,0.008
2024-06-17 04:00:00,0.033
2024-06-17 05:00:00,0.099
2024-06-17 06:00:00,0.2
2024-06-17 07:00:00,0.287
2024-06-17 08:00:00,0.327
2024-06-17 09:00:00,0.232
2024-06-17 10:00:00,0.242
2024-06-17 11:00:00,0.23
2024-06-17 12:00:00,0.221
2024-06-17 13:00:00,0.179
2024-06-17 14:00:00,0.177
2024-06-17 15:00:00,0.176
2024-06-17 16:00:00,0.107
2024-06-17 17:00:00,0.001
2024-06-17 18:00:00,-0.016
2024-06-17 19:00:00,-0.001
2024-06-17 20:00:00,-0.008
2024-06-17 21:00:00,-0.008
2024-06-17 22:00:00,-0.001
2024-06-17 23:00:00,0.0
2024-06-18 00:00:00,0.0
2024-06-18 01:00:00,0.0
2024-06-18 02:00:00,0.056
2024-06-18 03:00:00,0.163
2024-06-18 04:00:00,0.172
2024-06-18 05:00:00,0.268
2024-06-18 06:00:00,0.268
2024-06-18 07:00:00,0.307
2024-06-18 08:00:00,0.196
2024-06-18 09:00:00,0.228
2024-06-18 10:00:00,0.26
2024-06-18 11:00:00,0.238
2024-06-18 12:00:00,0.197
2024-06-18 13:00:00,0.232
2024-06-18 14:00:00,0.222
2024-06-18 15:00:00,0.221
2024-06-18 16:00:00,0.299
2024-06-18 17:00:00,0.167
2024-06-18 18:00:00,0.167
2024-06-18 19:00:00,0.04
2024-06-18 20:00:00,0.008
2024-06-18 21:00:00,0.033
2024-06-18 22:00:00,0.051
2024-06-18 23:00:00,0.026
2024-06-19 00:00:00,0.099
2024-06-19 01:00:00,0.053
2024-06-19 02:00:00,0.059
2024-06-19 03:00:00,0.179
2024-06-19 04:00:00,0.222
2024-06-19 05:00:00,0.143
2024-06-19 06:00:00,0.22
2024-06-19 07:00:00,0.284
2024-06-19 08:00:00,0.329
2024-06-19 09:00:00,0.361
2024-06-19 10:00:00,0.412
2024-06-19 11:00:00,0.448
2024-06-19 12:00:00,0.327
2024-06-19 13:00:00,0.264
2024-06-19 14:00:00,0.299
2024-06-19 15:00:00,0.348
2024-06-19 16:00:00,0.256
2024-06-19 17:00:00,0.132
2024-06-19 18:00:00,0.143
2024-06-19 19:00:00,0.045
2024-06-19 20:00:00,0.051
2024-06-19 21:00:00,0.1
2024-06-19 22:00:00,0.019
2024-06-19 23:00:00,0.0
2024-06-20 00:00:00,0.0
2024-06-20 01:00:00,0.0
2024-06-20 02:00:00,0.04
2024-06-20 03:00:00,0.067
2024-06-20 04:00:00,0.11
2024-06-20 05:00:00,0.166
2024-06-20 06:00:00,0.282
2024-06-20 07:00:00,0.337
2024-06-20 08:00:00,0.233
2024-06-20 09:00:00,0.186
2024-06-20 10:00:00,0.155
2024-06-20 11:00:00,0.11
2024-06-20 12:00:00,0.136
2024-06-20 13:00:00,0.052
2024-06-20 14:00:00,0.075
2024-06-20 15:00:00,0.075
2024-06-20 16:00:00,0.077
2024-06-20 17:00:00,0.043
2024-06-20 18:00:00,0.018
2024-06-20 19:00:00,0.0
2024-06-20 20:00:00,0.0
2024-06-20 21:00:00,0.008
2024-06-20 22:00:00,0.016
2024-06-20 23:00:00,0.018
2024-06-21 00:00:00,0.0
2024-06-21 01:00:00,0.0
2024-06-21 02:00:00,0.0
2024-06-21 03:00:00,0.056
2024-06-21 04:00:00,0.085
2024-06-21 05:00:00,0.083
2024-06-21 06:00:00,0.207
2024-06-21 07:00:00,0.182
2024-06-21 08:00:00,0.086
2024-06-21 09:00:00,0.059
2024-06-21 10:00:00,0.068
2024-06-21 11:00:00,0.068
2024-06-21 12:00:00,0.092
2024-06-21 13:00:00,0.076
2024-06-21 14:00:00,0.068
2024-06-21 15:00:00,0.077
2024-06-21 16:00:00,0.043
2024-06-21 17:00:00,0.001
2024-06-21 18:00:00,-0.008
2024-06-21 19:00:00,-0.009
2024-06-21 20:00:00,-0.016
2024-06-21 21:00:00,-0.001
2024-06-21 22:00:00,0.048
2024-06-21 23:00:00,0.043
2024-06-22 00:00:00,0.034
2024-06-22 01:00:00,0.05
2024-06-22 02:00:00,0.106
2024-06-22 03:00:00,0.226
2024-06-22 04:00:00,0.316
2024-06-22 05:00:00,0.249
2024-06-22 06:00:00,0.447
2024-06-22 07:00:00,0.652
2024-06-22 08:00:00,0.468
2024-06-22 09:00:00,0.332
2024-06-22 10:00:00,0.272
2024-06-22 11:00:00,0.237
2024-06-22 12:00:00,0.221
2024-06-22 13:00:00,0.243
2024-06-22 14:00:00,0.286
2024-06-22 15:00:00,0.289
2024-06-22 16:00:00,0.261
2024-06-22 17:00:00,0.23
2024-06-22 18:00:00,0.179
2024-06-22 19:00:00,0.218
2024-06-22 20:00:00,0.203
2024-06-22 21:00:00,0.188
2024-06-22 22:00:00,0.128
2024-06-22 23:00:00,0.11
2024-06-23 00:00:00,0.118
2024-06-23 01:00:00,0.109
2024-06-23 02:00:00,0.135
2024-06-23 03:00:00,0.192
2024-06-23 04:00:00,0.325
2024-06-23 05:00:00,0.527
2024-06-23 06:00:00,0.595
2024-06-23 07:00:00,0.603
2024-06-23 08:00:00,0.557
2024-06-23 09:00:00,0.582
2024-06-23 10:00:00,0.609
2024-06-23 11:00:00,0.476
2024-06-23 12:00:00,0.507
2024-06-23 13:00:00,0.532
2024-06-23 14:00:00,0.532
2024-06-23 15:00:00,0.58
2024-06-23 16:00:00,0.477
2024-06-23 17:00:00,0.451
2024-06-23 18:00:00,0.35
2024-06-23 19:00:00,0.23
2024-06-23 20:00:00,0.172
2024-06-23 21:00:00,0.144
2024-06-23 22:00:00,0.112
2024-06-23 23:00:00,0.093
2024-06-24 00:00:00,0.109
2024-06-24 01:00:00,0.117
2024-06-24 02:00:00,0.208
2024-06-24 03:00:00,0.35
2024-06-24 04:00:00,0.428
2024-06-24 05:00:00,0.489
2024-06-24 06:00:00,0.531
2024-06-24 07:00:00,0.549
2024-06-24 08:00:00,0.5
2024-06-24 09:00:00,0.491
2024-06-24 10:00:00,0.474
2024-06-24 11:00:00,0.473
2024-06-24 12:00:00,0.482
2024-06-24 13:00:00,0.441
2024-06-24 14:00:00,0.487
2024-06-24 15:00:00,0.573
2024-06-24 16:00:00,0.544
2024-06-24 17:00:00,0.387
2024-06-24 18:00:00,0.23
2024-06-24 19:00:00,0.228
2024-06-24 20:00:00,0.098
2024-06-24 21:00:00,0.052
2024-06-24 22:00:00,0.026
2024-06-24 23:00:00,0.017
2024-06-25 00:00:00,0.0
2024-06-25 01:00:00,0.008
2024-06-25 02:00:00,0.025
2024-06-25 03:00:00,0.091
2024-06-25 04:00:00,0.199
2024-06-25 05:00:00,0.276
2024-06-25 06:00:00,0.304
2024-06-25 07:00:00,0.312
2024-06-25 08:00:00,0.377
2024-06-25 09:00:00,0.404
2024-06-25 10:00:00,0.416
2024-06-25 11:00:00,0.38
2024-06-25 12:00:00,0.413
2024-06-25 13:00:00,0.413
2024-06-25 14:00:00,0.51
2024-06-25 15:00:00,0.493
2024-06-25 16:00:00,0.429
2024-06-25 17:00:00,0.157
2024-06-25 18:00:00,0.111
2024-06-25 19:00:00,0.069
2024-06-25 20:00:00,0.059
2024-06-25 21:00:00,0.074
2024-06-25 22:00:00,0.076
2024-06-25 23:00:00,0.134
2024-06-26 00:00:00,0.225
2024-06-26 01:00:00,0.379
2024-06-26 02:00:00,0.459
2024-06-26 03:00:00,0.432
2024-06-26 04:00:00,0.561
2024-06-26 05:00:00,0.607
2024-06-26 06:00:00,0.513
2024-06-26 07:00:00,0.472
2024-06-26 08:00:00,0.419
2024-06-26 09:00:00,0.25
2024-06-26 10:00:00,0.195
2024-06-26 11:00:00,0.243
2024-06-26 12:00:00,0.31
2024-06-26 13:00:00,0.337
2024-06-26 14:00:00,0.38
2024-06-26 15:00:00,0.397
2024-06-26 16:00:00,0.259
2024-06-26 17:00:00,0.239
2024-06-26 18:00:00,0.121
2024-06-26 19:00:00,0.035
2024-06-26 20:00:00,0.026
2024-06-26 21:00:00,0.041
2024-06-26 22:00:00,0.05
2024-06-26 23:00:00,0.077
2024-06-27 00:00:00,0.067
2024-06-27 01:00:00,0.15
2024-06-27 02:00:00,0.158
2024-06-27 03:00:00,0.197
2024-06-27 04:00:00,0.222
2024-06-27 05:00:00,0.518
2024-06-27 06:00:00,0.548
2024-06-27 07:00:00,0.42
2024-06-27 08:00:00,0.297
2024-06-27 09:00:00,0.231
2024-06-27 10:00:00,0.283
2024-06-27 11:00:00,0.306
2024-06-27 12:00:00,0.27
2024-06-27 13:00:00,0.255
2024-06-27 14:00:00,0.309
2024-06-27 15:00:00,0.371
2024-06-27 16:00:00,0.552
2024-06-27 17:00:00,0.543
2024-06-27 18:00:00,0.322
2024-06-27 19:00:00,0.249
2024-06-27 20:00:00,0.256
2024-06-27 21:00:00,0.22
2024-06-27 22:00:00,0.246
2024-06-27 23:00:00,0.188
2024-06-28 00:00:00,0.257
2024-06-28 01:00:00,0.491
2024-06-28 02:00:00,0.401
2024-06-28 03:00:00,0.603
2024-06-28 04:00:00,0.608
2024-06-28 05:00:00,0.585
2024-06-28 06:00:00,0.493
2024-06-28 07:00:00,0.482
2024-06-28 08:00:00,0.399
2024-06-28 09:00:00,0.495
2024-06-28 10:00:00,0.418
2024-06-28 11:00:00,0.349
2024-06-28 12:00:00,0.354
2024-06-28 13:00:00,0.395
2024-06-28 14:00:00,0.516
2024-06-28 15:00:00,0.6
2024-06-28 16:00:00,0.804
2024-06-28 17:00:00,0.834
2024-06-28 18:00:00,0.484
2024-06-28 19:00:00,0.249
2024-06-28 20:00:00,0.204
2024-06-28 21:00:00,0.227
2024-06-28 22:00:00,0.221
2024-06-28 23:00:00,0.234
2024-06-29 00:00:00,0.31
2024-06-29 01:00:00,0.533
2024-06-29 02:00:00,0.479
2024-06-29 03:00:00,0.454
2024-06-29 04:00:00,0.717
2024-06-29 05:00:00,1.051
2024-06-29 06:00:00,0.859
2024-06-29 07:00:00,0.723
2024-06-29 08:00:00,0.675
2024-06-29 09:00:00,0.675
2024-06-29 10:00:00,0.741
2024-06-29 11:00:00,0.76
2024-06-29 12:00:00,0.662
2024-06-29 13:00:00,0.673
2024-06-29 14:00:00,0.768
2024-06-29 15:00:00,1.03
2024-06-29 16:00:00,1.141
2024-06-29 17:00:00,0.852
2024-06-29 18:00:00,0.54
2024-06-29 19:00:00,0.497
2024-06-29 20:00:00,0.316
2024-06-29 21:00:00,0.223
2024-06-29 22:00:00,0.352
2024-06-29 23:00:00,0.394
2024-06-30 00:00:00,0.448
2024-06-30 01:00:00,0.51
2024-06-30 02:00:00,0.867
2024-06-30 03:00:00,0.678
2024-06-30 04:00:00,1.034
2024-06-30 05:00:00,1.102
2024-06-30 06:00:00,1.112
2024-06-30 07:00:00,0.959
2024-06-30 08:00:00,0.799
2024-06-30 09:00:00,0.926
2024-06-30 10:00:00,0.832
2024-06-30 11:00:00,0.753
2024-06-30 12:00:00,0.443
2024-06-30 13:00:00,0.372
2024-06-30 14:00:00,0.412
2024-06-30 15:00:00,0.469
2024-06-30 16:00:00,0.759
2024-06-30 17:00:00,0.897
2024-06-30 18:00:00,0.592
2024-06-30 19:00:00,0.216
2024-06-30 20:00:00,0.268
2024-06-30 21:00:00,0.246
2024-06-30 22:00:00,0.346
2024-06-30 23:00:00,0.148
2024-07-01 00:00:00,0.086
2024-07-01 01:00:00,0.122
2024-07-01 02:00:00,0.137
2024-07-01 03:00:00,0.248
2024-07-01 04:00:00,0.473
2024-07-01 05:00:00,0.646
2024-07-01 06:00:00,0.637
2024-07-01 07:00:00,0.568
2024-07-01 08:00:00,0.54
2024-07-01 09:00:00,0.559
2024-07-01 10:00:00,0.483
2024-07-01 11:00:00,0.44
2024-07-01 12:00:00,0.366
2024-07-01 13:00:00,0.265
2024-07-01 14:00:00,0.301
2024-07-01 15:00:00,0.349
2024-07-01 16:00:00,0.328
2024-07-01 17:00:00,0.314
2024-07-01 18:00:00,0.188
2024-07-01 19:00:00,0.202
2024-07-01 20:00:00,0.171
2024-07-01 21:00:00,0.244
2024-07-01 22:00:00,0.203
2024-07-01 23:00:00,0.129
2024-07-02 00:00:00,0.101
2024-07-02 01:00:00,0.11
2024-07-02 02:00:00,0.216
2024-07-02 03:00:00,0.244
2024-07-02 04:00:00,0.372
2024-07-02 05:00:00,0.473
2024-07-02 06:00:00,0.532
2024-07-02 07:00:00,0.523
2024-07-02 08:00:00,0.417
2024-07-02 09:00:00,0.407
2024-07-02 10:00:00,0.462
2024-07-02 11:00:00,0.424
2024-07-02 12:00:00,0.367
2024-07-02 13:00:00,0.305
2024-07-02 14:00:00,0.27
2024-07-02 15:00:00,0.278
2024-07-02 16:00:00,0.167
2024-07-02 17:00:00,0.045
2024-07-02 18:00:00,0.026
2024-07-02 19:00:00,0.025
2024-07-02 20:00:00,0.034
2024-07-02 21:00:00,0.025
2024-07-02 22:00:00,0.017
2024-07-02 23:00:00,0.017
2024-07-03 00:00:00,0.001
2024-07-03 01:00:00,0.0
2024-07-03 02:00:00,0.041
2024-07-03 03:00:00,0.074
2024-07-03 04:00:00,0.166
2024-07-03 05:00:00,0.407
2024-07-03 06:00:00,0.522
2024-07-03 07:00:00,0.484
2024-07-03 08:00:00,0.397
2024-07-03 09:00:00,0.397
2024-07-03 10:00:00,0.389
2024-07-03 11:00:00,0.382
2024-07-03 12:00:00,0.291
2024-07-03 13:00:00,0.18
2024-07-03 14:00:00,0.176
2024-07-03 15:00:00,0.212
2024-07-03 16:00:00,0.202
2024-07-03 17:00:00,0.129
2024-07-03 18:00:00,0.084
2024-07-03 19:00:00,0.135
2024-07-03 20:00:00,0.054
2024-07-03 21:00:00,0.059
2024-07-03 22:00:00,0.059
2024-07-03 23:00:00,0.076
2024-07-04 00:00:00,0.083
2024-07-04 01:00:00,0.061
2024-07-04 02:00:00,0.058
2024-07-04 03:00:00,0.052
2024-07-04 04:00:00,0.058
2024-07-04 05:00:00,0.125
2024-07-04 06:00:00,0.239
2024-07-04 07:00:00,0.312
2024-07-04 08:00:00,0.451
2024-07-04 09:00:00,0.505
2024-07-04 10:00:00,0.533
2024-07-04 11:00:00,0.524
2024-07-04 12:00:00,0.452
2024-07-04 13:00:00,0.275
2024-07-04 14:00:00,0.228
2024-07-04 15:00:00,0.277
2024-07-04 16:00:00,0.32
2024-07-04 17:00:00,0.32
2024-07-04 18:00:00,0.322
2024-07-04 19:00:00,0.288
2024-07-04 20:00:00,0.27
2024-07-04 21:00:00,0.323
2024-07-04 22:00:00,0.237
2024-07-04 23:00:00,0.253
2024-07-05 00:00:00,0.301
2024-07-05 01:00:00,0.369
2024-07-05 02:00:00,0.503
2024-07-05 03:00:00,0.579
2024-07-05 04:00:00,0.501
2024-07-05 05:00:00,0.6
2024-07-05 06:00:00,0.763
2024-07-05 07:00:00,0.826
2024-07-05 08:00:00,0.716
2024-07-05 09:00:00,0.529
2024-07-05 10:00:00,0.482
2024-07-05 11:00:00,0.433
2024-07-05 12:00:00,0.455
2024-07-05 13:00:00,0.465
2024-07-05 14:00:00,0.522
2024-07-05 15:00:00,0.637
2024-07-05 16:00:00,0.621
2024-07-05 17:00:00,0.509
2024-07-05 18:00:00,0.429
2024-07-05 19:00:00,0.346
2024-07-05 20:00:00,0.265
2024-07-05 21:00:00,0.254
2024-07-05 22:00:00,0.296
2024-07-05 23:00:00,0.204
2024-07-06 00:00:00,0.17
2024-07-06 01:00:00,0.169
2024-07-06 02:00:00,0.178
2024-07-06 03:00:00,0.184
2024-07-06 04:00:00,0.301
2024-07-06 05:00:00,0.529
2024-07-06 06:00:00,0.854
2024-07-06 07:00:00,0.799
2024-07-06 08:00:00,0.612
2024-07-06 09:00:00,0.52
2024-07-06 10:00:00,0.473
2024-07-06 11:00:00,0.465
2024-07-06 12:00:00,0.498
2024-07-06 13:00:00,0.522
2024-07-06 14:00:00,0.483
2024-07-06 15:00:00,0.473
2024-07-06 16:00:00,0.588
2024-07-06 17:00:00,0.553
2024-07-06 18:00:00,0.434
2024-07-06 19:00:00,0.292
2024-07-06 20:00:00,0.132
2024-07-06 21:00:00,0.028
2024-07-06 22:00:00,0.025
2024-07-06 23:00:00,0.034
2024-07-07 00:00:00,0.074
2024-07-07 01:00:00,0.092
2024-07-07 02:00:00,0.126
2024-07-07 03:00:00,0.15
2024-07-07 04:00:00,0.282
2024-07-07 05:00:00,0.5
2024-07-07 06:00:00,0.558
2024-07-07 07:00:00,0.628
2024-07-07 08:00:00,0.726
2024-07-07 09:00:00,0.825
2024-07-07 10:00:00,0.837
2024-07-07 11:00:00,0.755
2024-07-07 12:00:00,0.793
2024-07-07 13:00:00,0.794
2024-07-07 14:00:00,0.745
2024-07-07 15:00:00,0.8
2024-07-07 16:00:00,0.838
2024-07-07 17:00:00,0.611
2024-07-07 18:00:00,0.531
2024-07-07 19:00:00,0.541
2024-07-07 20:00:00,0.442
2024-07-07 21:00:00,0.155
2024-07-07 22:00:00,0.11
2024-07-07 23:00:00,0.053
2024-07-08 00:00:00,0.058
2024-07-08 01:00:00,0.075
2024-07-08 02:00:00,0.123
2024-07-08 03:00:00,0.161
2024-07-08 04:00:00,0.332
2024-07-08 05:00:00,0.452
2024-07-08 06:00:00,0.538
2024-07-08 07:00:00,0.517
2024-07-08 08:00:00,0.612
2024-07-08 09:00:00,0.804
2024-07-08 10:00:00,0.763
2024-07-08 11:00:00,0.753
2024-07-08 12:00:00,0.761
2024-07-08 13:00:00,0.761
2024-07-08 14:00:00,0.679
2024-07-08 15:00:00,0.846
2024-07-08 16:00:00,0.723
2024-07-08 17:00:00,0.622
2024-07-08 18:00:00,0.562
2024-07-08 19:00:00,0.287
2024-07-08 20:00:00,0.25
2024-07-08 21:00:00,0.141
2024-07-08 22:00:00,0.15
2024-07-08 23:00:00,0.137
2024-07-09 00:00:00,0.111
2024-07-09 01:00:00,0.213
2024-07-09 02:00:00,0.23
2024-07-09 03:00:00,0.286
2024-07-09 04:00:00,0.36
2024-07-09 05:00:00,0.469
2024-07-09 06:00:00,0.507
2024-07-09 07:00:00,0.474
2024-07-09 08:00:00,0.505
2024-07-09 09:00:00,0.531
2024-07-09 10:00:00,0.517
2024-07-09 11:00:00,0.548
2024-07-09 12:00:00,0.607
2024-07-09 13:00:00,0.609
2024-07-09 14:00:00,0.633
2024-07-09 15:00:00,0.626
2024-07-09 16:00:00,0.666
2024-07-09 17:00:00,0.698
2024-07-09 18:00:00,0.703
2024-07-09 19:00:00,0.597
2024-07-09 20:00:00,0.541
2024-07-09 21:00:00,0.652
2024-07-09 22:00:00,0.707
2024-07-09 23:00:00,0.849
2024-07-10 00:00:00,0.902
2024-07-10 01:00:00,1.037
2024-07-10 02:00:00,1.074
2024-07-10 03:00:00,0.972
2024-07-10 04:00:00,0.991
2024-07-10 05:00:00,1.004
2024-07-10 06:00:00,0.899
2024-07-10 07:00:00,0.913
2024-07-10 08:00:00,0.846
2024-07-10 09:00:00,0.894
2024-07-10 10:00:00,0.992
2024-07-10 11:00:00,1.153
2024-07-10 12:00:00,1.192
2024-07-10 13:00:00,1.176
2024-07-10 14:00:00,1.141
2024-07-10 15:00:00,1.091
2024-07-10 16:00:00,1.05
2024-07-10 17:00:00,1.073
2024-07-10 18:00:00,0.748
2024-07-10 19:00:00,0.497
2024-07-10 20:00:00,0.366
2024-07-10 21:00:00,0.299
2024-07-10 22:00:00,0.23
2024-07-10 23:00:00,0.212
2024-07-11 00:00:00,0.194
2024-07-11 01:00:00,0.218
2024-07-11 02:00:00,0.221
2024-07-11 03:00:00,0.381
2024-07-11 04:00:00,0.472
2024-07-11 05:00:00,0.563
2024-07-11 06:00:00,0.608
2024-07-11 07:00:00,0.559
2024-07-11 08:00:00,0.525
2024-07-11 09:00:00,0.548
2024-07-11 10:00:00,0.608
2024-07-11 11:00:00,0.574
2024-07-11 12:00:00,0.559
2024-07-11 13:00:00,0.509
2024-07-11 14:00:00,0.473
2024-07-11 15:00:00,0.49
2024-07-11 16:00:00,0.451
2024-07-11 17:00:00,0.342
2024-07-11 18:00:00,0.31
2024-07-11 19:00:00,0.314
2024-07-11 20:00:00,0.272
2024-07-11 21:00:00,0.36
2024-07-11 22:00:00,0.501
2024-07-11 23:00:00,0.411
2024-07-12 00:00:00,0.463
2024-07-12 01:00:00,0.31
2024-07-12 02:00:00,0.392
2024-07-12 03:00:00,0.553
2024-07-12 04:00:00,0.657
2024-07-12 05:00:00,0.676
2024-07-12 06:00:00,0.626
2024-07-12 07:00:00,0.634
2024-07-12 08:00:00,0.634
2024-07-12 09:00:00,0.642
2024-07-12 10:00:00,0.544
2024-07-12 11:00:00,0.572
2024-07-12 12:00:00,0.6
2024-07-12 13:00:00,0.625
2024-07-12 14:00:00,0.567
2024-07-12 15:00:00,0.711
2024-07-12 16:00:00,0.597
2024-07-12 17:00:00,0.432
2024-07-12 18:00:00,0.248
2024-07-12 19:00:00,0.22
2024-07-12 20:00:00,0.195
2024-07-12 21:00:00,0.203
2024-07-12 22:00:00,0.186
2024-07-12 23:00:00,0.162
2024-07-13 00:00:00,0.169
2024-07-13 01:00:00,0.241
2024-07-13 02:00:00,0.253
2024-07-13 03:00:00,0.399
2024-07-13 04:00:00,0.565
2024-07-13 05:00:00,0.582
2024-07-13 06:00:00,0.526
2024-07-13 07:00:00,0.491
2024-07-13 08:00:00,0.482
2024-07-13 09:00:00,0.506
2024-07-13 10:00:00,0.515
2024-07-13 11:00:00,0.499
2024-07-13 12:00:00,0.491
2024-07-13 13:00:00,0.474
2024-07-13 14:00:00,0.465
2024-07-13 15:00:00,0.481
2024-07-13 16:00:00,0.588
2024-07-13 17:00:00,0.353
2024-07-13 18:00:00,0.379
2024-07-13 19:00:00,0.31
2024-07-13 20:00:00,0.197
2024-07-13 21:00:00,0.194
2024-07-13 22:00:00,0.179
2024-07-13 23:00:00,0.143
2024-07-14 00:00:00,0.175
2024-07-14 01:00:00,0.178
2024-07-14 02:00:00,0.211
2024-07-14 03:00:00,0.29
2024-07-14 04:00:00,0.544
2024-07-14 05:00:00,0.605
2024-07-14 06:00:00,0.594
2024-07-14 07:00:00,0.55
2024-07-14 08:00:00,0.532
2024-07-14 09:00:00,0.541
2024-07-14 10:00:00,0.515
2024-07-14 11:00:00,0.475
2024-07-14 12:00:00,0.482
2024-07-14 13:00:00,0.482
2024-07-14 14:00:00,0.473
2024-07-14 15:00:00,0.505
2024-07-14 16:00:00,0.572
2024-07-14 17:00:00,0.624
2024-07-14 18:00:00,0.524
2024-07-14 19:00:00,0.481
2024-07-14 20:00:00,0.422
2024-07-14 21:00:00,0.441
2024-07-14 22:00:00,0.283
2024-07-14 23:00:00,0.238
2024-07-15 00:00:00,0.229
2024-07-15 01:00:00,0.22
2024-07-15 02:00:00,0.283
2024-07-15 03:00:00,0.557
2024-07-15 04:00:00,0.577
2024-07-15 05:00:00,0.713
2024-07-15 06:00:00,0.751
2024-07-15 07:00:00,0.653
2024-07-15 08:00:00,0.611
2024-07-15 09:00:00,0.615
2024-07-15 10:00:00,0.602
2024-07-15 11:00:00,0.567
2024-07-15 12:00:00,0.558
2024-07-15 13:00:00,0.526
2024-07-15 14:00:00,0.532
2024-07-15 15:00:00,0.548
2024-07-15 16:00:00,0.598
2024-07-15 17:00:00,0.665
2024-07-15 18:00:00,0.39
2024-07-15 19:00:00,0.259
2024-07-15 20:00:00,0.263
2024-07-15 21:00:00,0.18
2024-07-15 22:00:00,0.169
2024-07-15 23:00:00,0.144
2024-07-16 00:00:00,0.184
2024-07-16 01:00:00,0.17
2024-07-16 02:00:00,0.128
2024-07-16 03:00:00,0.225
2024-07-16 04:00:00,0.432
2024-07-16 05:00:00,0.513
2024-07-16 06:00:00,0.468
2024-07-16 07:00:00,0.464
2024-07-16 08:00:00,0.407
2024-07-16 09:00:00,0.406
2024-07-16 10:00:00,0.397
2024-07-16 11:00:00,0.413
2024-07-16 12:00:00,0.413
2024-07-16 13:00:00,0.424
2024-07-16 14:00:00,0.372
2024-07-16 15:00:00,0.445
2024-07-16 16:00:00,0.464
2024-07-16 17:00:00,0.473
2024-07-16 18:00:00,0.386
2024-07-16 19:00:00,0.238
2024-07-16 20:00:00,0.198
2024-07-16 21:00:00,0.178
2024-07-16 22:00:00,0.144
2024-07-16 23:00:00,0.111
2024-07-17 00:00:00,0.152
2024-07-17 01:00:00,0.194
2024-07-17 02:00:00,0.183
2024-07-17 03:00:00,0.146
2024-07-17 04:00:00,0.329
2024-07-17 05:00:00,0.306
2024-07-17 06:00:00,0.379
2024-07-17 07:00:00,0.34
2024-07-17 08:00:00,0.338
2024-07-17 09:00:00,0.37
2024-07-17 10:00:00,0.34
2024-07-17 11:00:00,0.379
2024-07-17 12:00:00,0.43
2024-07-17 13:00:00,0.399
2024-07-17 14:00:00,0.38
2024-07-17 15:00:00,0.38
2024-07-17 16:00:00,0.438
2024-07-17 17:00:00,0.386
2024-07-17 18:00:00,0.247
2024-07-17 19:00:00,0.179
2024-07-17 20:00:00,0.154
2024-07-17 21:00:00,0.078
2024-07-17 22:00:00,0.102
2024-07-17 23:00:00,0.076
2024-07-18 00:00:00,0.083
2024-07-18 01:00:00,0.118
2024-07-18 02:00:00,0.103
2024-07-18 03:00:00,0.059
2024-07-18 04:00:00,0.1
2024-07-18 05:00:00,0.221
2024-07-18 06:00:00,0.476
2024-07-18 07:00:00,0.465
2024-07-18 08:00:00,0.457
2024-07-18 09:00:00,0.465
2024-07-18 10:00:00,0.465
2024-07-18 11:00:00,0.472
2024-07-18 12:00:00,0.515
2024-07-18 13:00:00,0.532
2024-07-18 14:00:00,0.499
2024-07-18 15:00:00,0.531
2024-07-18 16:00:00,0.59
2024-07-18 17:00:00,0.519
2024-07-18 18:00:00,0.373
2024-07-18 19:00:00,0.178
2024-07-18 20:00:00,0.136
2024-07-18 21:00:00,0.127
2024-07-18 22:00:00,0.111
2024-07-18 23:00:00,0.117
2024-07-19 00:00:00,0.103
2024-07-19 01:00:00,0.11
2024-07-19 02:00:00,0.109
2024-07-19 03:00:00,0.142
2024-07-19 04:00:00,0.208
2024-07-19 05:00:00,0.383
2024-07-19 06:00:00,0.462
2024-07-19 07:00:00,0.45
2024-07-19 08:00:00,0.472
2024-07-19 09:00:00,0.457
2024-07-19 10:00:00,0.448
2024-07-19 11:00:00,0.455
2024-07-19 12:00:00,0.457
2024-07-19 13:00:00,0.441
2024-07-19 14:00:00,0.422
2024-07-19 15:00:00,0.448
2024-07-19 16:00:00,0.415
2024-07-19 17:00:00,0.202
2024-07-19 18:00:00,0.105
2024-07-19 19:00:00,0.076
2024-07-19 20:00:00,0.052
2024-07-19 21:00:00,0.017
2024-07-19 22:00:00,0.001
2024-07-19 23:00:00,0.0
2024-07-20 00:00:00,0.016
2024-07-20 01:00:00,0.066
2024-07-20 02:00:00,0.092
2024-07-20 03:00:00,0.109
2024-07-20 04:00:00,0.151
2024-07-20 05:00:00,0.226
2024-07-20 06:00:00,0.373
2024-07-20 07:00:00,0.438
2024-07-20 08:00:00,0.448
2024-07-20 09:00:00,0.481
2024-07-20 10:00:00,0.482
2024-07-20 11:00:00,0.474
2024-07-20 12:00:00,0.497
2024-07-20 13:00:00,0.515
2024-07-20 14:00:00,0.506
2024-07-20 15:00:00,0.572
2024-07-20 16:00:00,0.488
2024-07-20 17:00:00,0.275
2024-07-20 18:00:00,0.219
2024-07-20 19:00:00,0.115
2024-07-20 20:00:00,0.069
2024-07-20 21:00:00,0.06
2024-07-20 22:00:00,0.043
2024-07-20 23:00:00,0.025
2024-07-21 00:00:00,0.034
2024-07-21 01:00:00,0.034
2024-07-21 02:00:00,0.074
2024-07-21 03:00:00,0.131
2024-07-21 04:00:00,0.137
2024-07-21 05:00:00,0.337
2024-07-21 06:00:00,0.52
2024-07-21 07:00:00,0.525
2024-07-21 08:00:00,0.54
2024-07-21 09:00:00,0.573
2024-07-21 10:00:00,0.574
2024-07-21 11:00:00,0.607
2024-07-21 12:00:00,0.617
2024-07-21 13:00:00,0.617
2024-07-21 14:00:00,0.584
2024-07-21 15:00:00,0.665
2024-07-21 16:00:00,0.613
2024-07-21 17:00:00,0.265
2024-07-21 18:00:00,0.204
2024-07-21 19:00:00,0.119
2024-07-21 20:00:00,0.103
2024-07-21 21:00:00,0.092
2024-07-21 22:00:00,0.052
2024-07-21 23:00:00,0.059
2024-07-22 00:00:00,0.059
2024-07-22 01:00:00,0.075
2024-07-22 02:00:00,0.076
2024-07-22 03:00:00,0.117
2024-07-22 04:00:00,0.215
2024-07-22 05:00:00,0.366
2024-07-22 06:00:00,0.553
2024-07-22 07:00:00,0.549
2024-07-22 08:00:00,0.582
2024-07-22 09:00:00,0.673
2024-07-22 10:00:00,0.686
2024-07-22 11:00:00,0.684
2024-07-22 12:00:00,0.701
2024-07-22 13:00:00,0.71
2024-07-22 14:00:00,0.701
2024-07-22 15:00:00,0.692
2024-07-22 16:00:00,0.726
2024-07-22 17:00:00,0.485
2024-07-22 18:00:00,0.307
2024-07-22 19:00:00,0.182
2024-07-22 20:00:00,0.114
2024-07-22 21:00:00,0.115
2024-07-22 22:00:00,0.079
2024-07-22 23:00:00,0.035
2024-07-23 00:00:00,0.017
2024-07-23 01:00:00,0.033
2024-07-23 02:00:00,0.075
2024-07-23 03:00:00,0.132
2024-07-23 04:00:00,0.185
2024-07-23 05:00:00,0.34
2024-07-23 06:00:00,0.46
2024-07-23 07:00:00,0.432
2024-07-23 08:00:00,0.512
2024-07-23 09:00:00,0.576
2024-07-23 10:00:00,0.638
2024-07-23 11:00:00,0.675
2024-07-23 12:00:00,0.644
2024-07-23 13:00:00,0.57
2024-07-23 14:00:00,0.5
2024-07-23 15:00:00,0.473
2024-07-23 16:00:00,0.538
2024-07-23 17:00:00,0.494
2024-07-23 18:00:00,0.408
2024-07-23 19:00:00,0.252
2024-07-23 20:00:00,0.121
2024-07-23 21:00:00,0.052
2024-07-23 22:00:00,0.026
2024-07-23 23:00:00,0.033
2024-07-24 00:00:00,0.075
2024-07-24 01:00:00,0.094
2024-07-24 02:00:00,0.26
2024-07-24 03:00:00,0.397
2024-07-24 04:00:00,0.534
2024-07-24 05:00:00,0.558
2024-07-24 06:00:00,0.446
2024-07-24 07:00:00,0.373
2024-07-24 08:00:00,0.371
2024-07-24 09:00:00,0.445
2024-07-24 10:00:00,0.611
2024-07-24 11:00:00,0.666
2024-07-24 12:00:00,0.839
2024-07-24 13:00:00,1.025
2024-07-24 14:00:00,0.844
2024-07-24 15:00:00,0.836
2024-07-24 16:00:00,0.779
2024-07-24 17:00:00,0.719
2024-07-24 18:00:00,0.767
2024-07-24 19:00:00,0.602
2024-07-24 20:00:00,0.272
2024-07-24 21:00:00,0.138
2024-07-24 22:00:00,0.086
2024-07-24 23:00:00,0.036
2024-07-25 00:00:00,0.065
2024-07-25 01:00:00,0.181
2024-07-25 02:00:00,0.21
2024-07-25 03:00:00,0.488
2024-07-25 04:00:00,0.772
2024-07-25 05:00:00,0.719
2024-07-25 06:00:00,0.678
2024-07-25 07:00:00,0.546
2024-07-25 08:00:00,0.483
2024-07-25 09:00:00,0.48
2024-07-25 10:00:00,0.595
2024-07-25 11:00:00,0.618
2024-07-25 12:00:00,0.691
2024-07-25 13:00:00,0.83
2024-07-25 14:00:00,0.658
2024-07-25 15:00:00,0.602
2024-07-25 16:00:00,0.69
2024-07-25 17:00:00,0.619
2024-07-25 18:00:00,0.521
2024-07-25 19:00:00,0.304
2024-07-25 20:00:00,0.297
2024-07-25 21:00:00,0.26
2024-07-25 22:00:00,0.214
2024-07-25 23:00:00,0.252
2024-07-26 00:00:00,0.288
2024-07-26 01:00:00,0.292
2024-07-26 02:00:00,0.448
2024-07-26 03:00:00,0.426
2024-07-26 04:00:00,0.611
2024-07-26 05:00:00,0.657
2024-07-26 06:00:00,0.724
2024-07-26 07:00:00,0.67
2024-07-26 08:00:00,0.779
2024-07-26 09:00:00,0.943
2024-07-26 10:00:00,1.085
2024-07-26 11:00:00,1.083
2024-07-26 12:00:00,1.097
2024-07-26 13:00:00,1.06
2024-07-26 14:00:00,0.966
2024-07-26 15:00:00,0.841
2024-07-26 16:00:00,0.779
2024-07-26 17:00:00,0.705
2024-07-26 18:00:00,0.537
2024-07-26 19:00:00,0.312
2024-07-26 20:00:00,0.254
2024-07-26 21:00:00,0.481
2024-07-26 22:00:00,0.339
2024-07-26 23:00:00,0.33
2024-07-27 00:00:00,0.27
2024-07-27 01:00:00,0.214
2024-07-27 02:00:00,0.22
2024-07-27 03:00:00,0.219
2024-07-27 04:00:00,0.292
2024-07-27 05:00:00,0.483
2024-07-27 06:00:00,0.623
2024-07-27 07:00:00,0.584
2024-07-27 08:00:00,0.59
2024-07-27 09:00:00,0.649
2024-07-27 10:00:00,0.781
2024-07-27 11:00:00,0.844
2024-07-27 12:00:00,0.846
2024-07-27 13:00:00,0.852
2024-07-27 14:00:00,0.79
2024-07-27 15:00:00,0.648
2024-07-27 16:00:00,0.519
2024-07-27 17:00:00,0.506
2024-07-27 18:00:00,0.499
2024-07-27 19:00:00,0.426
2024-07-27 20:00:00,0.299
2024-07-27 21:00:00,0.256
2024-07-27 22:00:00,0.237
2024-07-27 23:00:00,0.266
2024-07-28 00:00:00,0.298
2024-07-28 01:00:00,0.293
2024-07-28 02:00:00,0.533
2024-07-28 03:00:00,0.799
2024-07-28 04:00:00,0.953
2024-07-28 05:00:00,0.867
2024-07-28 06:00:00,0.755
2024-07-28 07:00:00,0.719
2024-07-28 08:00:00,0.742
2024-07-28 09:00:00,0.744
2024-07-28 10:00:00,0.751
2024-07-28 11:00:00,0.792
2024-07-28 12:00:00,0.819
2024-07-28 13:00:00,0.829
2024-07-28 14:00:00,0.754
2024-07-28 15:00:00,0.735
2024-07-28 16:00:00,0.793
2024-07-28 17:00:00,0.755
2024-07-28 18:00:00,0.538
2024-07-28 19:00:00,0.468
2024-07-28 20:00:00,0.366
2024-07-28 21:00:00,0.331
2024-07-28 22:00:00,0.314
2024-07-28 23:00:00,0.396
2024-07-29 00:00:00,0.29
2024-07-29 01:00:00,0.311
2024-07-29 02:00:00,0.402
2024-07-29 03:00:00,0.545
2024-07-29 04:00:00,0.652
2024-07-29 05:00:00,0.776
2024-07-29 06:00:00,0.755
2024-07-29 07:00:00,0.669
2024-07-29 08:00:00,0.675
2024-07-29 09:00:00,0.677
2024-07-29 10:00:00,0.659
2024-07-29 11:00:00,0.675
2024-07-29 12:00:00,0.684
2024-07-29 13:00:00,0.734
2024-07-29 14:00:00,0.726
2024-07-29 15:00:00,0.776
2024-07-29 16:00:00,0.771
2024-07-29 17:00:00,0.64
2024-07-29 18:00:00,0.527
2024-07-29 19:00:00,0.417
2024-07-29 20:00:00,0.337
2024-07-29 21:00:00,0.282
2024-07-29 22:00:00,0.286
2024-07-29 23:00:00,0.328
2024-07-30 00:00:00,0.305
2024-07-30 01:00:00,0.361
2024-07-30 02:00:00,0.453
2024-07-30 03:00:00,0.426
2024-07-30 04:00:00,0.5
2024-07-30 05:00:00,0.696
2024-07-30 06:00:00,0.794
2024-07-30 07:00:00,0.712
2024-07-30 08:00:00,0.75
2024-07-30 09:00:00,0.761
2024-07-30 10:00:00,0.728
2024-07-30 11:00:00,0.742
2024-07-30 12:00:00,0.728
2024-07-30 13:00:00,0.71
2024-07-30 14:00:00,0.661
2024-07-30 15:00:00,0.675
2024-07-30 16:00:00,0.506
2024-07-30 17:00:00,0.391
2024-07-30 18:00:00,0.372
2024-07-30 19:00:00,0.364
2024-07-30 20:00:00,0.371
2024-07-30 21:00:00,0.373
2024-07-30 22:00:00,0.427
2024-07-30 23:00:00,0.392
2024-07-31 00:00:00,0.363
2024-07-31 01:00:00,0.42
2024-07-31 02:00:00,0.457
2024-07-31 03:00:00,0.614
2024-07-31 04:00:00,0.88
2024-07-31 05:00:00,0.94
2024-07-31 06:00:00,0.808
2024-07-31 07:00:00,0.737
2024-07-31 08:00:00,0.76
2024-07-31 09:00:00,0.744
2024-07-31 10:00:00,0.768
2024-07-31 11:00:00,0.802
2024-07-31 12:00:00,0.819
2024-07-31 13:00:00,0.795
2024-07-31 14:00:00,0.787
2024-07-31 15:00:00,0.752
2024-07-31 16:00:00,0.794
2024-07-31 17:00:00,0.818
2024-07-31 18:00:00,0.748
2024-07-31 19:00:00,0.473
2024-07-31 20:00:00,0.318
2024-07-31 21:00:00,0.384
2024-07-31 22:00:00,0.53
2024-07-31 23:00:00,0.614
2024-08-01 00:00:00,0.352
2024-08-01 01:00:00,0.227
2024-08-01 02:00:00,0.397
2024-08-01 03:00:00,0.577
2024-08-01 04:00:00,0.968
2024-08-01 05:00:00,1.065
2024-08-01 06:00:00,0.95
2024-08-01 07:00:00,0.929
2024-08-01 08:00:00,0.946
2024-08-01 09:00:00,0.937
2024-08-01 10:00:00,0.938
2024-08-01 11:00:00,0.939
2024-08-01 12:00:00,0.914
2024-08-01 13:00:00,0.936
2024-08-01 14:00:00,1.004
2024-08-01 15:00:00,1.045
2024-08-01 16:00:00,1.14
2024-08-01 17:00:00,1.23
2024-08-01 18:00:00,1.324
2024-08-01 19:00:00,1.083
2024-08-01 20:00:00,0.875
2024-08-01 21:00:00,0.779
2024-08-01 22:00:00,0.65
2024-08-01 23:00:00,0.589
2024-08-02 00:00:00,0.619
2024-08-02 01:00:00,0.728
2024-08-02 02:00:00,0.917
2024-08-02 03:00:00,1.19
2024-08-02 04:00:00,1.436
2024-08-02 05:00:00,1.407
2024-08-02 06:00:00,1.212
2024-08-02 07:00:00,1.168
2024-08-02 08:00:00,1.15
2024-08-02 09:00:00,1.108
2024-08-02 10:00:00,1.074
2024-08-02 11:00:00,1.049
2024-08-02 12:00:00,1.006
2024-08-02 13:00:00,0.989
2024-08-02 14:00:00,0.989
2024-08-02 15:00:00,1.013
2024-08-02 16:00:00,1.047
2024-08-02 17:00:00,1.121
2024-08-02 18:00:00,1.189
2024-08-02 19:00:00,1.007
2024-08-02 20:00:00,0.963
2024-08-02 21:00:00,0.701
2024-08-02 22:00:00,0.684
2024-08-02 23:00:00,0.726
2024-08-03 00:00:00,0.872
2024-08-03 01:00:00,0.863
2024-08-03 02:00:00,1.031
2024-08-03 03:00:00,1.3
2024-08-03 04:00:00,1.421
2024-08-03 05:00:00,1.492
2024-08-03 06:00:00,1.371
2024-08-03 07:00:00,1.194
2024-08-03 08:00:00,1.213
2024-08-03 09:00:00,1.177
2024-08-03 10:00:00,1.126
2024-08-03 11:00:00,1.066
2024-08-03 12:00:00,1.04
2024-08-03 13:00:00,1.014
2024-08-03 14:00:00,1.015
2024-08-03 15:00:00,1.093
2024-08-03 16:00:00,1.118
2024-08-03 17:00:00,0.962
2024-08-03 18:00:00,0.718
2024-08-03 19:00:00,0.447
2024-08-03 20:00:00,0.301
2024-08-03 21:00:00,0.23
2024-08-03 22:00:00,0.204
2024-08-03 23:00:00,0.235
2024-08-04 00:00:00,0.26
2024-08-04 01:00:00,0.384
2024-08-04 02:00:00,0.57
2024-08-04 03:00:00,0.813
2024-08-04 04:00:00,0.69
2024-08-04 05:00:00,1.077
2024-08-04 06:00:00,0.968
2024-08-04 07:00:00,0.848
2024-08-04 08:00:00,0.901
2024-08-04 09:00:00,0.92
2024-08-04 10:00:00,0.913
2024-08-04 11:00:00,0.905
2024-08-04 12:00:00,0.887
2024-08-04 13:00:00,0.896
2024-08-04 14:00:00,0.88
2024-08-04 15:00:00,0.957
2024-08-04 16:00:00,1.097
2024-08-04 17:00:00,0.798
2024-08-04 18:00:00,0.588
2024-08-04 19:00:00,0.61
2024-08-04 20:00:00,0.421
2024-08-04 21:00:00,0.273
2024-08-04 22:00:00,0.293
2024-08-04 23:00:00,0.364
2024-08-05 00:00:00,0.354
2024-08-05 01:00:00,0.265
2024-08-05 02:00:00,0.295
2024-08-05 03:00:00,0.322
2024-08-05 04:00:00,0.505
2024-08-05 05:00:00,0.537
2024-08-05 06:00:00,0.636
2024-08-05 07:00:00,0.6
2024-08-05 08:00:00,0.698
2024-08-05 09:00:00,0.702
2024-08-05 10:00:00,0.661
2024-08-05 11:00:00,0.659
2024-08-05 12:00:00,0.635
2024-08-05 13:00:00,0.617
2024-08-05 14:00:00,0.599
2024-08-05 15:00:00,0.593
2024-08-05 16:00:00,0.616
2024-08-05 17:00:00,0.681
2024-08-05 18:00:00,0.644
2024-08-05 19:00:00,0.604
2024-08-05 20:00:00,0.647
2024-08-05 21:00:00,0.566
2024-08-05 22:00:00,0.577
2024-08-05 23:00:00,0.519
2024-08-06 00:00:00,0.683
2024-08-06 01:00:00,0.948
2024-08-06 02:00:00,0.886
2024-08-06 03:00:00,0.767
2024-08-06 04:00:00,0.843
2024-08-06 05:00:00,0.853
2024-08-06 06:00:00,0.822
2024-08-06 07:00:00,0.738
2024-08-06 08:00:00,0.759
2024-08-06 09:00:00,0.77
2024-08-06 10:00:00,0.768
2024-08-06 11:00:00,0.711
2024-08-06 12:00:00,0.742
2024-08-06 13:00:00,0.714
2024-08-06 14:00:00,0.666
2024-08-06 15:00:00,0.741
2024-08-06 16:00:00,0.891
2024-08-06 17:00:00,0.919
2024-08-06 18:00:00,0.89
2024-08-06 19:00:00,0.816
2024-08-06 20:00:00,0.733
2024-08-06 21:00:00,0.797
2024-08-06 22:00:00,0.667
2024-08-06 23:00:00,0.564
2024-08-07 00:00:00,0.629
2024-08-07 01:00:00,0.463
2024-08-07 02:00:00,0.821
2024-08-07 03:00:00,1.112
2024-08-07 04:00:00,1.186
2024-08-07 05:00:00,0.847
2024-08-07 06:00:00,0.732
2024-08-07 07:00:00,0.693
2024-08-07 08:00:00,0.719
2024-08-07 09:00:00,0.692
2024-08-07 10:00:00,0.749
2024-08-07 11:00:00,0.72
2024-08-07 12:00:00,0.718
2024-08-07 13:00:00,0.695
2024-08-07 14:00:00,0.684
2024-08-07 15:00:00,0.725
2024-08-07 16:00:00,0.84
2024-08-07 17:00:00,0.864
2024-08-07 18:00:00,0.684
2024-08-07 19:00:00,0.772
2024-08-07 20:00:00,0.695
2024-08-07 21:00:00,0.553
2024-08-07 22:00:00,0.73
2024-08-07 23:00:00,0.66
2024-08-08 00:00:00,0.693
2024-08-08 01:00:00,0.504
2024-08-08 02:00:00,0.655
2024-08-08 03:00:00,0.68
2024-08-08 04:00:00,0.915
2024-08-08 05:00:00,0.849
2024-08-08 06:00:00,0.667
2024-08-08 07:00:00,0.73
2024-08-08 08:00:00,0.785
2024-08-08 09:00:00,0.828
2024-08-08 10:00:00,0.819
2024-08-08 11:00:00,0.729
2024-08-08 12:00:00,0.752
2024-08-08 13:00:00,0.678
2024-08-08 14:00:00,0.652
2024-08-08 15:00:00,0.642
2024-08-08 16:00:00,0.692
2024-08-08 17:00:00,0.603
2024-08-08 18:00:00,0.387
2024-08-08 19:00:00,0.348
2024-08-08 20:00:00,0.392
2024-08-08 21:00:00,0.384
2024-08-08 22:00:00,0.47
2024-08-08 23:00:00,0.565
2024-08-09 00:00:00,0.385
2024-08-09 01:00:00,0.468
2024-08-09 02:00:00,0.353
2024-08-09 03:00:00,0.434
2024-08-09 04:00:00,0.536
2024-08-09 05:00:00,0.675
2024-08-09 06:00:00,0.675
2024-08-09 07:00:00,0.651
2024-08-09 08:00:00,0.668
2024-08-09 09:00:00,0.601
2024-08-09 10:00:00,0.592
2024-08-09 11:00:00,0.478
2024-08-09 12:00:00,0.545
2024-08-09 13:00:00,0.624
2024-08-09 14:00:00,0.608
2024-08-09 15:00:00,0.559
2024-08-09 16:00:00,0.542
2024-08-09 17:00:00,0.581
2024-08-09 18:00:00,0.582
2024-08-09 19:00:00,0.581
2024-08-09 20:00:00,0.537
2024-08-09 21:00:00,0.549
2024-08-09 22:00:00,0.638
2024-08-09 23:00:00,0.736
2024-08-10 00:00:00,0.666
2024-08-10 01:00:00,0.848
2024-08-10 02:00:00,0.885
2024-08-10 03:00:00,0.994
2024-08-10 04:00:00,1.025
2024-08-10 05:00:00,0.914
2024-08-10 06:00:00,0.88
2024-08-10 07:00:00,0.86
2024-08-10 08:00:00,0.888
2024-08-10 09:00:00,0.879
2024-08-10 10:00:00,0.871
2024-08-10 11:00:00,0.838
2024-08-10 12:00:00,0.795
2024-08-10 13:00:00,0.77
2024-08-10 14:00:00,0.777
2024-08-10 15:00:00,0.828
2024-08-10 16:00:00,0.925
2024-08-10 17:00:00,0.897
2024-08-10 18:00:00,0.723
2024-08-10 19:00:00,0.681
2024-08-10 20:00:00,0.566
2024-08-10 21:00:00,0.544
2024-08-10 22:00:00,0.515
2024-08-10 23:00:00,0.531
2024-08-11 00:00:00,0.639
2024-08-11 01:00:00,0.738
2024-08-11 02:00:00,0.842
2024-08-11 03:00:00,0.92
2024-08-11 04:00:00,1.012
2024-08-11 05:00:00,0.963
2024-08-11 06:00:00,0.956
2024-08-11 07:00:00,0.914
2024-08-11 08:00:00,0.896
2024-08-11 09:00:00,0.846
2024-08-11 10:00:00,0.886
2024-08-11 11:00:00,0.896
2024-08-11 12:00:00,0.927
2024-08-11 13:00:00,0.883
2024-08-11 14:00:00,0.819
2024-08-11 15:00:00,0.862
2024-08-11 16:00:00,0.981
2024-08-11 17:00:00,0.816
2024-08-11 18:00:00,0.789
2024-08-11 19:00:00,0.788
2024-08-11 20:00:00,0.712
2024-08-11 21:00:00,0.589
2024-08-11 22:00:00,0.474
2024-08-11 23:00:00,0.606
2024-08-12 00:00:00,0.646
2024-08-12 01:00:00,0.658
2024-08-12 02:00:00,0.997
2024-08-12 03:00:00,1.056
2024-08-12 04:00:00,0.924
2024-08-12 05:00:00,1.133
2024-08-12 06:00:00,1.036
2024-08-12 07:00:00,1.046
2024-08-12 08:00:00,1.016
2024-08-12 09:00:00,1.053
2024-08-12 10:00:00,0.926
2024-08-12 11:00:00,0.954
2024-08-12 12:00:00,0.932
2024-08-12 13:00:00,0.928
2024-08-12 14:00:00,0.963
2024-08-12 15:00:00,0.873
2024-08-12 16:00:00,1.069
2024-08-12 17:00:00,0.822
2024-08-12 18:00:00,0.578
2024-08-12 19:00:00,0.477
2024-08-12 20:00:00,0.505
2024-08-12 21:00:00,0.524
2024-08-12 22:00:00,0.466
2024-08-12 23:00:00,0.433
2024-08-13 00:00:00,0.438
2024-08-13 01:00:00,0.592
2024-08-13 02:00:00,0.714
2024-08-13 03:00:00,1.034
2024-08-13 04:00:00,1.333
2024-08-13 05:00:00,1.252
2024-08-13 06:00:00,1.27
2024-08-13 07:00:00,1.027
2024-08-13 08:00:00,0.984
2024-08-13 09:00:00,0.963
2024-08-13 10:00:00,0.981
2024-08-13 11:00:00,0.939
2024-08-13 12:00:00,0.973
2024-08-13 13:00:00,0.913
2024-08-13 14:00:00,0.864
2024-08-13 15:00:00,0.876
2024-08-13 16:00:00,0.938
2024-08-13 17:00:00,0.922
2024-08-13 18:00:00,0.95
2024-08-13 19:00:00,1.065
2024-08-13 20:00:00,0.844
2024-08-13 21:00:00,0.853
2024-08-13 22:00:00,1.081
2024-08-13 23:00:00,0.917
2024-08-14 00:00:00,0.971
2024-08-14 01:00:00,1.101
2024-08-14 02:00:00,0.979
2024-08-14 03:00:00,1.093
2024-08-14 04:00:00,1.075
2024-08-14 05:00:00,1.201
2024-08-14 06:00:00,0.814
2024-08-14 07:00:00,0.759
2024-08-14 08:00:00,0.672
2024-08-14 09:00:00,0.709
2024-08-14 10:00:00,0.741
2024-08-14 11:00:00,0.744
2024-08-14 12:00:00,0.695
2024-08-14 13:00:00,0.685
2024-08-14 14:00:00,0.7
2024-08-14 15:00:00,0.678
2024-08-14 16:00:00,0.667
2024-08-14 17:00:00,0.709
2024-08-14 18:00:00,0.792
2024-08-14 19:00:00,0.499
2024-08-14 20:00:00,0.508
2024-08-14 21:00:00,0.588
2024-08-14 22:00:00,0.705
2024-08-14 23:00:00,0.769
2024-08-15 00:00:00,0.673
2024-08-15 01:00:00,0.592
2024-08-15 02:00:00,0.825
2024-08-15 03:00:00,0.881
2024-08-15 04:00:00,0.979
2024-08-15 05:00:00,0.898
2024-08-15 06:00:00,0.869
2024-08-15 07:00:00,0.879
2024-08-15 08:00:00,0.897
2024-08-15 09:00:00,0.879
2024-08-15 10:00:00,0.829
2024-08-15 11:00:00,0.804
2024-08-15 12:00:00,0.769
2024-08-15 13:00:00,0.72
2024-08-15 14:00:00,0.784
2024-08-15 15:00:00,0.761
2024-08-15 16:00:00,0.801
2024-08-15 17:00:00,0.865
2024-08-15 18:00:00,0.644
2024-08-15 19:00:00,0.756
2024-08-15 20:00:00,0.608
2024-08-15 21:00:00,0.547
2024-08-15 22:00:00,0.723
2024-08-15 23:00:00,0.589
2024-08-16 00:00:00,0.611
2024-08-16 01:00:00,0.595
2024-08-16 02:00:00,0.656
2024-08-16 03:00:00,0.88
2024-08-16 04:00:00,1.053
2024-08-16 05:00:00,0.981
2024-08-16 06:00:00,0.825
2024-08-16 07:00:00,0.859
2024-08-16 08:00:00,0.789
2024-08-16 09:00:00,0.827
2024-08-16 10:00:00,0.82
2024-08-16 11:00:00,0.789
2024-08-16 12:00:00,0.71
2024-08-16 13:00:00,0.718
2024-08-16 14:00:00,0.708
2024-08-16 15:00:00,0.787
2024-08-16 16:00:00,0.798
2024-08-16 17:00:00,0.795
2024-08-16 18:00:00,0.591
2024-08-16 19:00:00,0.545
2024-08-16 20:00:00,0.484
2024-08-16 21:00:00,0.472
2024-08-16 22:00:00,0.392
2024-08-16 23:00:00,0.469
2024-08-17 00:00:00,0.55
2024-08-17 01:00:00,0.65
2024-08-17 02:00:00,1.036
2024-08-17 03:00:00,1.137
2024-08-17 04:00:00,1.002
2024-08-17 05:00:00,1.041
2024-08-17 06:00:00,0.931
2024-08-17 07:00:00,0.898
2024-08-17 08:00:00,0.874
2024-08-17 09:00:00,0.909
2024-08-17 10:00:00,0.824
2024-08-17 11:00:00,0.729
2024-08-17 12:00:00,0.749
2024-08-17 13:00:00,0.763
2024-08-17 14:00:00,0.745
2024-08-17 15:00:00,0.727
2024-08-17 16:00:00,0.799
2024-08-17 17:00:00,0.941
2024-08-17 18:00:00,0.755
2024-08-17 19:00:00,0.597
2024-08-17 20:00:00,0.606
2024-08-17 21:00:00,0.533
2024-08-17 22:00:00,0.572
2024-08-17 23:00:00,0.671
2024-08-18 00:00:00,0.976
2024-08-18 01:00:00,0.742
2024-08-18 02:00:00,0.866
2024-08-18 03:00:00,0.968
2024-08-18 04:00:00,1.279
2024-08-18 05:00:00,1.136
2024-08-18 06:00:00,0.93
2024-08-18 07:00:00,0.912
2024-08-18 08:00:00,0.972
2024-08-18 09:00:00,0.922
2024-08-18 10:00:00,0.903
2024-08-18 11:00:00,0.956
2024-08-18 12:00:00,0.879
2024-08-18 13:00:00,0.896
2024-08-18 14:00:00,0.812
2024-08-18 15:00:00,0.772
2024-08-18 16:00:00,0.945
2024-08-18 17:00:00,0.9
2024-08-18 18:00:00,0.861
2024-08-18 19:00:00,0.905
2024-08-18 20:00:00,0.857
2024-08-18 21:00:00,0.708
2024-08-18 22:00:00,0.649
2024-08-18 23:00:00,0.488
2024-08-19 00:00:00,0.544
2024-08-19 01:00:00,0.59
2024-08-19 02:00:00,0.679
2024-08-19 03:00:00,0.567
2024-08-19 04:00:00,0.58
2024-08-19 05:00:00,1.068
2024-08-19 06:00:00,0.993
2024-08-19 07:00:00,0.946
2024-08-19 08:00:00,0.939
2024-08-19 09:00:00,0.976
2024-08-19 10:00:00,0.919
2024-08-19 11:00:00,0.867
2024-08-19 12:00:00,0.948
2024-08-19 13:00:00,0.906
2024-08-19 14:00:00,0.878
2024-08-19 15:00:00,0.94
2024-08-19 16:00:00,0.957
2024-08-19 17:00:00,1.062
2024-08-19 18:00:00,0.926
2024-08-19 19:00:00,0.956
2024-08-19 20:00:00,0.892
2024-08-19 21:00:00,0.659
2024-08-19 22:00:00,0.572
2024-08-19 23:00:00,0.686
2024-08-20 00:00:00,0.825
2024-08-20 01:00:00,1.04
2024-08-20 02:00:00,1.256
2024-08-20 03:00:00,1.605
2024-08-20 04:00:00,1.635
2024-08-20 05:00:00,1.86
2024-08-20 06:00:00,1.704
2024-08-20 07:00:00,1.43
2024-08-20 08:00:00,1.337
2024-08-20 09:00:00,1.245
2024-08-20 10:00:00,1.174
2024-08-20 11:00:00,1.078
2024-08-20 12:00:00,1.142
2024-08-20 13:00:00,1.25
2024-08-20 14:00:00,1.315
2024-08-20 15:00:00,1.225
2024-08-20 16:00:00,1.196
2024-08-20 17:00:00,1.272
2024-08-20 18:00:00,1.168
2024-08-20 19:00:00,1.122
2024-08-20 20:00:00,0.995
2024-08-20 21:00:00,0.905
2024-08-20 22:00:00,0.859
2024-08-20 23:00:00,0.806
2024-08-21 00:00:00,0.783
2024-08-21 01:00:00,1.151
2024-08-21 02:00:00,1.649
2024-08-21 03:00:00,2.044
2024-08-21 04:00:00,2.231
2024-08-21 05:00:00,2.016
2024-08-21 06:00:00,1.708
2024-08-21 07:00:00,1.687
2024-08-21 08:00:00,1.74
2024-08-21 09:00:00,1.529
2024-08-21 10:00:00,1.301
2024-08-21 11:00:00,1.264
2024-08-21 12:00:00,1.369
2024-08-21 13:00:00,1.446
2024-08-21 14:00:00,1.455
2024-08-21 15:00:00,1.426
2024-08-21 16:00:00,1.564
2024-08-21 17:00:00,1.531
2024-08-21 18:00:00,1.42
2024-08-21 19:00:00,1.394
2024-08-21 20:00:00,1.584
2024-08-21 21:00:00,1.109
2024-08-21 22:00:00,1.104
2024-08-21 23:00:00,0.997
2024-08-22 00:00:00,1.231
2024-08-22 01:00:00,1.467
2024-08-22 02:00:00,1.503
2024-08-22 03:00:00,2.198
2024-08-22 04:00:00,2.325
2024-08-22 05:00:00,2.312
2024-08-22 06:00:00,2.17
2024-08-22 07:00:00,1.932
2024-08-22 08:00:00,1.713
2024-08-22 09:00:00,1.553
2024-08-22 10:00:00,1.483
2024-08-22 11:00:00,1.455
2024-08-22 12:00:00,1.423
2024-08-22 13:00:00,1.599
2024-08-22 14:00:00,1.663
2024-08-22 15:00:00,1.78
2024-08-22 16:00:00,2.028
2024-08-22 17:00:00,1.9
2024-08-22 18:00:00,1.936
2024-08-22 19:00:00,1.83
2024-08-22 20:00:00,1.71
2024-08-22 21:00:00,1.545
2024-08-22 22:00:00,1.658
2024-08-22 23:00:00,1.255
2024-08-23 00:00:00,1.332
2024-08-23 01:00:00,1.417
2024-08-23 02:00:00,1.976
2024-08-23 03:00:00,2.862
2024-08-23 04:00:00,3.07
2024-08-23 05:00:00,2.725
2024-08-23 06:00:00,2.814
2024-08-23 07:00:00,2.675
2024-08-23 08:00:00,2.44
2024-08-23 09:00:00,2.374
2024-08-23 10:00:00,2.119
2024-08-23 11:00:00,1.827
2024-08-23 12:00:00,1.973
2024-08-23 13:00:00,1.962
2024-08-23 14:00:00,2.046
2024-08-23 15:00:00,2.175
2024-08-23 16:00:00,2.212
2024-08-23 17:00:00,2.684
2024-08-23 18:00:00,2.723
2024-08-23 19:00:00,2.739
2024-08-23 20:00:00,1.845
2024-08-23 21:00:00,1.751
2024-08-23 22:00:00,1.526
2024-08-23 23:00:00,1.372
2024-08-24 00:00:00,1.768
2024-08-24 01:00:00,1.518
2024-08-24 02:00:00,1.974
2024-08-24 03:00:00,2.847
2024-08-24 04:00:00,3.342
2024-08-24 05:00:00,3.241
2024-08-24 06:00:00,3.062
2024-08-24 07:00:00,2.874
2024-08-24 08:00:00,2.899
2024-08-24 09:00:00,2.427
2024-08-24 10:00:00,2.361
2024-08-24 11:00:00,2.087
2024-08-24 12:00:00,2.386
2024-08-24 13:00:00,2.594
2024-08-24 14:00:00,2.507
2024-08-24 15:00:00,2.38
2024-08-24 16:00:00,2.382
2024-08-24 17:00:00,3.059
2024-08-24 18:00:00,3.021
2024-08-24 19:00:00,2.715
2024-08-24 20:00:00,2.5
2024-08-24 21:00:00,1.758
2024-08-24 22:00:00,1.684
2024-08-24 23:00:00,1.68
2024-08-25 00:00:00,1.569
2024-08-25 01:00:00,1.922
2024-08-25 02:00:00,1.772
2024-08-25 03:00:00,2.574
2024-08-25 04:00:00,3.165
2024-08-25 05:00:00,3.431
2024-08-25 06:00:00,3.532
2024-08-25 07:00:00,3.461
2024-08-25 08:00:00,3.382
2024-08-25 09:00:00,3.494
2024-08-25 10:00:00,3.658
2024-08-25 11:00:00,3.165
2024-08-25 12:00:00,3.324
2024-08-25 13:00:00,3.016
2024-08-25 14:00:00,3.324
2024-08-25 15:00:00,3.428
2024-08-25 16:00:00,3.375
2024-08-25 17:00:00,3.699
2024-08-25 18:00:00,2.963
2024-08-25 19:00:00,2.798
2024-08-25 20:00:00,2.562
2024-08-25 21:00:00,2.738
2024-08-25 22:00:00,2.585
2024-08-25 23:00:00,2.386
2024-08-26 00:00:00,2.311
2024-08-26 01:00:00,2.488
2024-08-26 02:00:00,3.159
2024-08-26 03:00:00,3.784
2024-08-26 04:00:00,3.842
2024-08-26 05:00:00,4.107
2024-08-26 06:00:00,3.925
2024-08-26 07:00:00,4.103
2024-08-26 08:00:00,3.969
2024-08-26 09:00:00,3.691
2024-08-26 10:00:00,3.58
2024-08-26 11:00:00,3.049
2024-08-26 12:00:00,2.739
2024-08-26 13:00:00,2.779
2024-08-26 14:00:00,2.637
2024-08-26 15:00:00,2.597
2024-08-26 16:00:00,3.33
2024-08-26 17:00:00,4.399
2024-08-26 18:00:00,3.701
2024-08-26 19:00:00,2.915
2024-08-26 20:00:00,2.994
2024-08-26 21:00:00,2.408
2024-08-26 22:00:00,2.18
2024-08-26 23:00:00,2.5
2024-08-27 00:00:00,2.891
2024-08-27 01:00:00,2.42
2024-08-27 02:00:00,2.647
2024-08-27 03:00:00,3.389
2024-08-27 04:00:00,2.536
2024-08-27 05:00:00,1.985
2024-08-27 06:00:00,2.181
2024-08-27 07:00:00,2.182
2024-08-27 08:00:00,1.831
2024-08-27 09:00:00,1.529
2024-08-27 10:00:00,1.587
2024-08-27 11:00:00,1.71
2024-08-27 12:00:00,1.598
2024-08-27 13:00:00,1.506
2024-08-27 14:00:00,1.277
2024-08-27 15:00:00,1.105
2024-08-27 16:00:00,1.312
2024-08-27 17:00:00,1.709
2024-08-27 18:00:00,2.478
2024-08-27 19:00:00,2.8
2024-08-27 20:00:00,2.923
2024-08-27 21:00:00,3.16
2024-08-27 22:00:00,3.218
2024-08-27 23:00:00,2.341
2024-08-28 00:00:00,2.125
2024-08-28 01:00:00,2.381
2024-08-28 02:00:00,3.201
2024-08-28 03:00:00,2.252
2024-08-28 04:00:00,1.559
2024-08-28 05:00:00,1.346
2024-08-28 06:00:00,1.453
2024-08-28 07:00:00,1.72
2024-08-28 08:00:00,2.089
2024-08-28 09:00:00,1.862
2024-08-28 10:00:00,1.865
2024-08-28 11:00:00,1.908
2024-08-28 12:00:00,2.288
2024-08-28 13:00:00,2.65
2024-08-28 14:00:00,2.767
2024-08-28 15:00:00,2.35
2024-08-28 16:00:00,2.453
2024-08-28 17:00:00,2.411
2024-08-28 18:00:00,2.182
2024-08-28 19:00:00,2.224
2024-08-28 20:00:00,2.468
2024-08-28 21:00:00,2.504
2024-08-28 22:00:00,2.92
2024-08-28 23:00:00,2.603
2024-08-29 00:00:00,2.53
2024-08-29 01:00:00,3.018
2024-08-29 02:00:00,3.799
2024-08-29 03:00:00,5.566
2024-08-29 04:00:00,5.608
2024-08-29 05:00:00,4.244
2024-08-29 06:00:00,3.026
2024-08-29 07:00:00,3.061
2024-08-29 08:00:00,2.987
2024-08-29 09:00:00,4.028
2024-08-29 10:00:00,4.112
2024-08-29 11:00:00,4.37
2024-08-29 12:00:00,4.6
2024-08-29 13:00:00,4.506
2024-08-29 14:00:00,4.709
2024-08-29 15:00:00,4.855
2024-08-29 16:00:00,5.043
2024-08-29 17:00:00,4.492
2024-08-29 18:00:00,5.493
2024-08-29 19:00:00,3.276
2024-08-29 20:00:00,3.257
2024-08-29 21:00:00,3.124
2024-08-29 22:00:00,3.093
2024-08-29 23:00:00,3.406
2024-08-30 00:00:00,3.888
2024-08-30 01:00:00,4.149
2024-08-30 02:00:00,5.986
2024-08-30 03:00:00,5.714
2024-08-30 04:00:00,5.895
2024-08-30 05:00:00,5.825
2024-08-30 06:00:00,5.503
2024-08-30 07:00:00,5.457
2024-08-30 08:00:00,5.747
2024-08-30 09:00:00,5.748
2024-08-30 10:00:00,5.456
2024-08-30 11:00:00,5.483
2024-08-30 12:00:00,5.242
2024-08-30 13:00:00,5.486
2024-08-30 14:00:00,5.223
2024-08-30 15:00:00,5.178
2024-08-30 16:00:00,5.66
2024-08-30 17:00:00,5.858
2024-08-30 18:00:00,5.26
2024-08-30 19:00:00,2.961
2024-08-30 20:00:00,2.577
2024-08-30 21:00:00,2.773
2024-08-30 22:00:00,2.629
2024-08-30 23:00:00,2.545
2024-08-31 00:00:00,2.972
2024-08-31 01:00:00,3.037
2024-08-31 02:00:00,2.405
2024-08-31 03:00:00,2.921
2024-08-31 04:00:00,5.054
2024-08-31 05:00:00,6.563
2024-08-31 06:00:00,6.41
2024-08-31 07:00:00,6.486
2024-08-31 08:00:00,5.861
2024-08-31 09:00:00,5.812
2024-08-31 10:00:00,5.958
2024-08-31 11:00:00,5.642
2024-08-31 12:00:00,5.136
2024-08-31 13:00:00,5.574
2024-08-31 14:00:00,5.554
2024-08-31 15:00:00,5.5
2024-08-31 16:00:00,5.584
2024-08-31 17:00:00,6.396
2024-08-31 18:00:00,5.327
2024-08-31 19:00:00,3.906
2024-08-31 20:00:00,3.449
2024-08-31 21:00:00,3.026
2024-08-31 22:00:00,2.582
2024-08-31 23:00:00,2.818
2024-09-01 00:00:00,3.717
2024-09-01 01:00:00,4.422
2024-09-01 02:00:00,4.577
2024-09-01 03:00:00,5.388
2024-09-01 04:00:00,6.838
2024-09-01 05:00:00,6.909
2024-09-01 06:00:00,6.503
2024-09-01 07:00:00,5.803
2024-09-01 08:00:00,5.842
2024-09-01 09:00:00,5.464
2024-09-01 10:00:00,5.513
2024-09-01 11:00:00,5.81
2024-09-01 12:00:00,5.084
2024-09-01 13:00:00,5.751
2024-09-01 14:00:00,5.323
2024-09-01 15:00:00,5.379
2024-09-01 16:00:00,6.06
2024-09-01 17:00:00,5.97
2024-09-01 18:00:00,3.743
2024-09-01 19:00:00,2.239
2024-09-01 20:00:00,1.957
2024-09-01 21:00:00,1.914
2024-09-01 22:00:00,2.007
2024-09-01 23:00:00,2.782
2024-09-02 00:00:00,2.738
2024-09-02 01:00:00,2.692
2024-09-02 02:00:00,3.126
2024-09-02 03:00:00,4.191
2024-09-02 04:00:00,5.277
2024-09-02 05:00:00,8.231
2024-09-02 06:00:00,7.418
2024-09-02 07:00:00,6.77
2024-09-02 08:00:00,6.048
2024-09-02 09:00:00,6.119
2024-09-02 10:00:00,5.809
2024-09-02 11:00:00,5.866
2024-09-02 12:00:00,5.266
2024-09-02 13:00:00,5.748
2024-09-02 14:00:00,5.778
2024-09-02 15:00:00,6.233
2024-09-02 16:00:00,6.256
2024-09-02 17:00:00,5.591
2024-09-02 18:00:00,4.65
2024-09-02 19:00:00,2.851
2024-09-02 20:00:00,2.279
2024-09-02 21:00:00,1.987
2024-09-02 22:00:00,2.214
2024-09-02 23:00:00,2.212
2024-09-03 00:00:00,2.638
2024-09-03 01:00:00,2.91
2024-09-03 02:00:00,3.91
2024-09-03 03:00:00,4.957
2024-09-03 04:00:00,6.77
2024-09-03 05:00:00,8.154
2024-09-03 06:00:00,8.371
2024-09-03 07:00:00,7.496
2024-09-03 08:00:00,6.392
2024-09-03 09:00:00,6.406
2024-09-03 10:00:00,6.434
2024-09-03 11:00:00,6.037
2024-09-03 12:00:00,6.056
2024-09-03 13:00:00,6.086
2024-09-03 14:00:00,6.735
2024-09-03 15:00:00,6.53
2024-09-03 16:00:00,7.849
2024-09-03 17:00:00,7.541
2024-09-03 18:00:00,5.724
2024-09-03 19:00:00,5.184
2024-09-03 20:00:00,3.957
2024-09-03 21:00:00,4.739
2024-09-03 22:00:00,5.976
2024-09-03 23:00:00,2.591
2024-09-04 00:00:00,2.657
2024-09-04 01:00:00,2.99
2024-09-04 02:00:00,3.369
2024-09-04 03:00:00,3.439
2024-09-04 04:00:00,5.024
2024-09-04 05:00:00,5.877
2024-09-04 06:00:00,5.838
2024-09-04 07:00:00,6.024
2024-09-04 08:00:00,7.069
2024-09-04 09:00:00,5.681
2024-09-04 10:00:00,5.005
2024-09-04 11:00:00,5.282
2024-09-04 12:00:00,6.442
2024-09-04 13:00:00,5.296
2024-09-04 14:00:00,5.234
2024-09-04 15:00:00,5.384
2024-09-04 16:00:00,5.89
2024-09-04 17:00:00,5.558
2024-09-04 18:00:00,6.686
2024-09-04 19:00:00,3.908
2024-09-04 20:00:00,3.812
2024-09-04 21:00:00,3.307
2024-09-04 22:00:00,3.212
2024-09-04 23:00:00,3.283
2024-09-05 00:00:00,2.937
2024-09-05 01:00:00,2.899
2024-09-05 02:00:00,4.21
2024-09-05 03:00:00,4.072
2024-09-05 04:00:00,5.824
2024-09-05 05:00:00,6.166
2024-09-05 06:00:00,5.818
2024-09-05 07:00:00,5.867
2024-09-05 08:00:00,5.532
2024-09-05 09:00:00,5.321
2024-09-05 10:00:00,5.227
2024-09-05 11:00:00,5.373
2024-09-05 12:00:00,6.56
2024-09-05 13:00:00,5.539
2024-09-05 14:00:00,5.58
2024-09-05 15:00:00,5.887
2024-09-05 16:00:00,5.86
2024-09-05 17:00:00,5.205
2024-09-05 18:00:00,3.561
2024-09-05 19:00:00,1.994
2024-09-05 20:00:00,1.929
2024-09-05 21:00:00,2.842
2024-09-05 22:00:00,3.424
2024-09-05 23:00:00,2.434
2024-09-06 00:00:00,3.074
2024-09-06 01:00:00,3.705
2024-09-06 02:00:00,6.46
2024-09-06 03:00:00,5.555
2024-09-06 04:00:00,5.698
2024-09-06 05:00:00,5.918
2024-09-06 06:00:00,5.86
2024-09-06 07:00:00,5.263
2024-09-06 08:00:00,5.38
2024-09-06 09:00:00,5.152
2024-09-06 10:00:00,5.331
2024-09-06 11:00:00,5.606
2024-09-06 12:00:00,5.103
2024-09-06 13:00:00,5.475
2024-09-06 14:00:00,6.918
2024-09-06 15:00:00,6.334
2024-09-06 16:00:00,6.713
2024-09-06 17:00:00,9.764
2024-09-06 18:00:00,6.334
2024-09-06 19:00:00,5.044
2024-09-06 20:00:00,3.762
2024-09-06 21:00:00,2.996
2024-09-06 22:00:00,2.709
2024-09-06 23:00:00,2.643
2024-09-07 00:00:00,2.612
2024-09-07 01:00:00,3.125
2024-09-07 02:00:00,3.414
2024-09-07 03:00:00,5.16
2024-09-07 04:00:00,6.225
2024-09-07 05:00:00,6.934
2024-09-07 06:00:00,6.753
2024-09-07 07:00:00,6.367
2024-09-07 08:00:00,6.556
2024-09-07 09:00:00,6.499
2024-09-07 10:00:00,6.532
2024-09-07 11:00:00,6.1
2024-09-07 12:00:00,6.245
2024-09-07 13:00:00,6.312
2024-09-07 14:00:00,6.18
2024-09-07 15:00:00,6.203
2024-09-07 16:00:00,4.899
2024-09-07 17:00:00,3.258
2024-09-07 18:00:00,3.054
2024-09-07 19:00:00,2.772
2024-09-07 20:00:00,1.652
2024-09-07 21:00:00,2.177
2024-09-07 22:00:00,2.167
2024-09-07 23:00:00,1.852
2024-09-08 00:00:00,2.426
2024-09-08 01:00:00,3.106
2024-09-08 02:00:00,3.48
2024-09-08 03:00:00,3.568
2024-09-08 04:00:00,3.642
2024-09-08 05:00:00,4.086
2024-09-08 06:00:00,4.508
2024-09-08 07:00:00,4.203
2024-09-08 08:00:00,4.041
2024-09-08 09:00:00,4.012
2024-09-08 10:00:00,3.704
2024-09-08 11:00:00,3.851
2024-09-08 12:00:00,3.67
2024-09-08 13:00:00,3.775
2024-09-08 14:00:00,3.386
2024-09-08 15:00:00,2.661
2024-09-08 16:00:00,4.758
2024-09-08 17:00:00,2.808
2024-09-08 18:00:00,3.037
2024-09-08 19:00:00,1.776
2024-09-08 20:00:00,0.94
2024-09-08 21:00:00,0.834
2024-09-08 22:00:00,0.756
2024-09-08 23:00:00,1.639
2024-09-09 00:00:00,3.275
2024-09-09 01:00:00,1.884
2024-09-09 02:00:00,3.01
2024-09-09 03:00:00,0.152
2024-09-09 04:00:00,0.017
2024-09-09 05:00:00,0.017
2024-09-09 06:00:00,0.017
2024-09-09 07:00:00,0.017
2024-09-09 08:00:00,0.001
2024-09-09 09:00:00,0.0
2024-09-09 10:00:00,0.0
2024-09-09 11:00:00,0.0
2024-09-09 12:00:00,0.008
2024-09-09 13:00:00,0.001
2024-09-09 14:00:00,0.0
2024-09-09 15:00:00,0.0
2024-09-09 16:00:00,0.0
2024-09-09 17:00:00,0.0
2024-09-09 18:00:00,0.0
2024-09-09 19:00:00,0.0
2024-09-09 20:00:00,-0.04
2024-09-09 21:00:00,-0.084
2024-09-09 22:00:00,-0.061
2024-09-09 23:00:00,0.206
2024-09-10 00:00:00,0.541
2024-09-10 01:00:00,0.875
2024-09-10 02:00:00,1.21
2024-09-10 03:00:00,1.545
2024-09-10 04:00:00,1.879
2024-09-10 05:00:00,2.214
2024-09-10 06:00:00,2.549
2024-09-10 07:00:00,2.883
2024-09-10 08:00:00,3.218
2024-09-10 09:00:00,3.553
2024-09-10 10:00:00,3.887
2024-09-10 11:00:00,4.222
2024-09-10 12:00:00,4.556
2024-09-10 13:00:00,4.891
2024-09-10 14:00:00,5.226
2024-09-10 15:00:00,5.56
2024-09-10 16:00:00,5.895
2024-09-10 17:00:00,6.23
2024-09-10 18:00:00,6.564
2024-09-10 19:00:00,6.899
2024-09-10 20:00:00,7.234
2024-09-10 21:00:00,7.568
2024-09-10 22:00:00,7.819
